time[s]	Surge [m]	Sway [m]	Heave [m]	Roll [rad]	Pitch [rad]	Yaw [rad]	
0.5	0.00439966	-0.000158523	-0.000565108	1.95023e-06	3.43891e-05	-3.85912e-09
0.51	0.00450413	-0.000174136	-0.000587052	2.14046e-06	3.51656e-05	-4.06343e-09
0.52	0.00460593	-0.00019044	-0.000609737	2.33899e-06	3.59093e-05	-4.27827e-09
0.53	0.00470478	-0.000207344	-0.000633132	2.54482e-06	3.66168e-05	-4.50381e-09
0.54	0.00480056	-0.000224838	-0.000657203	2.75776e-06	3.72866e-05	-4.7405e-09
0.55	0.00489312	-0.000242838	-0.000681915	2.97685e-06	3.79169e-05	-4.98823e-09
0.56	0.00498246	-0.000261311	-0.000707228	3.20165e-06	3.85076e-05	-5.24707e-09
0.57	0.00506853	-0.000280179	-0.000733103	3.43125e-06	3.90584e-05	-5.51674e-09
0.58	0.00515145	-0.00029939	-0.000759497	3.66499e-06	3.95702e-05	-5.79703e-09
0.59	0.00523127	-0.000318851	-0.000786366	3.90185e-06	4.00439e-05	-6.08741e-09
0.6	0.00530815	-0.000338551	-0.000813665	4.14153e-06	4.04811e-05	-6.38769e-09
0.61	0.00538219	-0.000358378	-0.000841348	4.38281e-06	4.08832e-05	-6.69716e-09
0.62	0.00545356	-0.000378306	-0.000869366	4.62527e-06	4.12519e-05	-7.01561e-09
0.63	0.00552237	-0.000398237	-0.000897672	4.86779e-06	4.15885e-05	-7.34251e-09
0.64	0.00558872	-0.000418127	-0.000926216	5.10977e-06	4.18944e-05	-7.67764e-09
0.65	0.00565268	-0.000437886	-0.000954949	5.35019e-06	4.217e-05	-8.02063e-09
0.66	0.00571427	-0.000457458	-0.000983818	5.58829e-06	4.24158e-05	-8.37133e-09
0.67	0.00577345	-0.000476757	-0.00101277	5.82309e-06	4.26313e-05	-8.72956e-09
0.68	0.00583017	-0.000495715	-0.00104177	6.05372e-06	4.28158e-05	-9.09539e-09
0.69	0.00588429	-0.000514247	-0.00107075	6.27917e-06	4.29676e-05	-9.46887e-09
0.7	0.00593565	-0.000532275	-0.00109966	6.49848e-06	4.30849e-05	-9.85013e-09
0.71	0.00598405	-0.000549712	-0.00112847	6.7106e-06	4.31652e-05	-1.02393e-08
0.72	0.00602925	-0.000566474	-0.00115712	6.91452e-06	4.32059e-05	-1.06366e-08
0.73	0.00607103	-0.000582473	-0.00118556	7.10918e-06	4.32043e-05	-1.10422e-08
0.74	0.00610911	-0.000597629	-0.00121375	7.29357e-06	4.31571e-05	-1.14561e-08
0.75	0.00614333	-0.000611841	-0.00124165	7.46652e-06	4.30624e-05	-1.18784e-08
0.76	0.00617343	-0.000625035	-0.00126923	7.62711e-06	4.29174e-05	-1.23092e-08
0.77	0.00619932	-0.00063712	-0.00129644	7.77426e-06	4.27207e-05	-1.27483e-08
0.78	0.00622085	-0.000648023	-0.00132325	7.90708e-06	4.24708e-05	-1.31954e-08
0.79	0.00623802	-0.000657666	-0.00134963	8.02463e-06	4.21676e-05	-1.36504e-08
0.8	0.00625082	-0.000665987	-0.00137556	8.12614e-06	4.18112e-05	-1.41125e-08
0.81	0.00625938	-0.000672922	-0.00140102	8.21086e-06	4.1403e-05	-1.45813e-08
0.82	0.00626385	-0.000678421	-0.00142598	8.27818e-06	4.09447e-05	-1.50561e-08
0.83	0.00626446	-0.00068244	-0.00145042	8.32755e-06	4.04394e-05	-1.55361e-08
0.84	0.0062615	-0.000684945	-0.00147435	8.35857e-06	3.98902e-05	-1.60205e-08
0.85	0.0062553	-0.000685909	-0.00149775	8.37091e-06	3.93013e-05	-1.65083e-08
0.86	0.00624625	-0.000685316	-0.00152061	8.36435e-06	3.8677e-05	-1.69984e-08
0.87	0.00623472	-0.000683155	-0.00154294	8.33877e-06	3.8022e-05	-1.74899e-08
0.88	0.00622111	-0.000679426	-0.00156473	8.29415e-06	3.7341e-05	-1.79818e-08
0.89	0.00620582	-0.000674131	-0.00158599	8.23052e-06	3.66386e-05	-1.8473e-08
0.9	0.0061892	-0.000667282	-0.00160674	8.14801e-06	3.59191e-05	-1.89627e-08
0.91	0.00617159	-0.000658894	-0.00162697	8.04678e-06	3.51864e-05	-1.945e-08
0.92	0.00615326	-0.000648986	-0.00164671	7.92708e-06	3.44439e-05	-1.99342e-08
0.93	0.00613444	-0.00063758	-0.00166596	7.78916e-06	3.36943e-05	-2.04146e-08
0.94	0.00611529	-0.000624702	-0.00168475	7.63334e-06	3.29394e-05	-2.08905e-08
0.95	0.0060959	-0.00061038	-0.00170309	7.45993e-06	3.21805e-05	-2.13615e-08
0.96	0.0060763	-0.000594643	-0.00172099	7.26931e-06	3.1418e-05	-2.18273e-08
0.97	0.00605648	-0.000577523	-0.00173849	7.06187e-06	3.06517e-05	-2.22877e-08
0.98	0.00603635	-0.000559056	-0.00175559	6.83802e-06	2.98806e-05	-2.27427e-08
0.99	0.0060158	-0.000539276	-0.00177233	6.59821e-06	2.91035e-05	-2.31921e-08
1	0.00599466	-0.000518226	-0.00178872	6.34295e-06	2.83185e-05	-2.36363e-08
1.01	0.00597277	-0.000495949	-0.00180479	6.07276e-06	2.75237e-05	-2.40753e-08
1.02	0.00594995	-0.000472492	-0.00182056	5.78823e-06	2.67171e-05	-2.45096e-08
1.03	0.00592603	-0.000447911	-0.00183605	5.49006e-06	2.58967e-05	-2.49393e-08
1.04	0.00590087	-0.00042227	-0.00185129	5.17899e-06	2.50608e-05	-2.53648e-08
1.05	0.00587434	-0.000395648	-0.0018663	4.85597e-06	2.4208e-05	-2.57867e-08
1.06	0.00584634	-0.000368087	-0.0018811	4.52158e-06	2.33374e-05	-2.62051e-08
1.07	0.00581686	-0.000339695	-0.00189572	4.17708e-06	2.24485e-05	-2.66205e-08
1.08	0.00578588	-0.000310533	-0.00191018	3.82327e-06	2.15415e-05	-2.70332e-08
1.09	0.00575346	-0.000280715	-0.00192449	3.46146e-06	2.06169e-05	-2.74434e-08
1.1	0.0057197	-0.000250323	-0.00193867	3.0927e-06	1.9676e-05	-2.78513e-08
1.11	0.00568474	-0.000219473	-0.00195275	2.71838e-06	1.87205e-05	-2.82571e-08
1.12	0.00564873	-0.000188264	-0.00196674	2.3397e-06	1.77522e-05	-2.86607e-08
1.13	0.00561188	-0.000156814	-0.00198065	1.95809e-06	1.67735e-05	-2.90624e-08
1.14	0.00557436	-0.000125235	-0.00199449	1.57489e-06	1.57866e-05	-2.94622e-08
1.15	0.00553639	-9.36514e-05	-0.00200828	1.1916e-06	1.4794e-05	-2.98602e-08
1.16	0.00549814	-6.21568e-05	-0.00202202	8.09389e-07	1.37976e-05	-3.02564e-08
1.17	0.00545976	-3.08838e-05	-0.00203571	4.29825e-07	1.27996e-05	-3.06511e-08
1.18	0.00542137	7.36466e-08	-0.00204936	5.40815e-08	1.18011e-05	-3.10445e-08
1.19	0.00538307	3.05943e-05	-0.00206297	-3.164e-07	1.08035e-05	-3.1437e-08
1.2	0.00534488	6.0584e-05	-0.00207652	-6.80455e-07	9.80695e-06	-3.1829e-08
1.21	0.00530681	8.99348e-05	-0.00209002	-1.03679e-06	8.81163e-06	-3.22212e-08
1.22	0.0052688	0.000118557	-0.00210344	-1.3843e-06	7.81684e-06	-3.26144e-08
1.23	0.00523075	0.000146355	-0.00211679	-1.72184e-06	6.82151e-06	-3.30095e-08
1.24	0.00519253	0.000173246	-0.00213003	-2.04839e-06	5.8241e-06	-3.34075e-08
1.25	0.00515398	0.000199147	-0.00214317	-2.36293e-06	4.82278e-06	-3.38095e-08
1.26	0.00511491	0.00022398	-0.00215616	-2.66454e-06	3.81542e-06	-3.42167e-08
1.27	0.00507513	0.000247673	-0.002169	-2.95232e-06	2.7998e-06	-3.46303e-08
1.28	0.00503449	0.000270159	-0.00218166	-3.22545e-06	1.77413e-06	-3.50516e-08
1.29	0.00499281	0.000291371	-0.00219412	-3.48312e-06	7.36352e-07	-3.54817e-08
1.3	0.00494997	0.000311248	-0.00220635	-3.72461e-06	-3.14805e-07	-3.59218e-08
1.31	0.00490587	0.000329738	-0.00221832	-3.94925e-06	-1.38057e-06	-3.63728e-08
1.32	0.00486048	0.000346785	-0.00223001	-4.15639e-06	-2.46124e-06	-3.68353e-08
1.33	0.0048138	0.000362344	-0.00224139	-4.34545e-06	-3.5568e-06	-3.731e-08
1.34	0.0047659	0.000376369	-0.00225245	-4.51589e-06	-4.66631e-06	-3.77972e-08
1.35	0.0047169	0.000388822	-0.00226314	-4.66725e-06	-5.78836e-06	-3.82969e-08
1.36	0.00466699	0.000399669	-0.00227346	-4.79911e-06	-6.92078e-06	-3.88091e-08
1.37	0.00461637	0.000408881	-0.00228338	-4.91114e-06	-8.06093e-06	-3.93334e-08
1.38	0.00456532	0.000416437	-0.00229288	-5.00306e-06	-9.2056e-06	-3.98693e-08
1.39	0.00451414	0.000422321	-0.00230194	-5.07469e-06	-1.03513e-05	-4.0416e-08
1.4	0.00446314	0.000426526	-0.00231054	-5.12593e-06	-1.14943e-05	-4.09729e-08
1.41	0.00441265	0.000429054	-0.00231867	-5.15682e-06	-1.26306e-05	-4.15389e-08
1.42	0.00436295	0.000429891	-0.00232632	-5.16723e-06	-1.3757e-05	-4.21131e-08
1.43	0.00431439	0.000429081	-0.00233348	-5.1576e-06	-1.48692e-05	-4.26948e-08
1.44	0.00426719	0.000426618	-0.00234013	-5.12794e-06	-1.59647e-05	-4.32827e-08
1.45	0.00422163	0.000422554	-0.00234628	-5.07884e-06	-1.70402e-05	-4.38766e-08
1.46	0.00417786	0.000416911	-0.00235193	-5.01058e-06	-1.80939e-05	-4.44753e-08
1.47	0.00413604	0.000409745	-0.00235706	-4.92383e-06	-1.91237e-05	-4.50785e-08
1.48	0.00409625	0.000401101	-0.0023617	-4.81912e-06	-2.01289e-05	-4.56857e-08
1.49	0.00405855	0.000391044	-0.00236583	-4.69724e-06	-2.11087e-05	-4.62965e-08
1.5	0.0040229	0.000379633	-0.00236948	-4.55893e-06	-2.20634e-05	-4.69105e-08
1.51	0.00398928	0.000366945	-0.00237265	-4.40507e-06	-2.29934e-05	-4.75276e-08
1.52	0.00395761	0.000353051	-0.00237537	-4.23655e-06	-2.38995e-05	-4.81477e-08
1.53	0.00392779	0.000338034	-0.00237764	-4.05435e-06	-2.47827e-05	-4.87704e-08
1.54	0.00389973	0.000321974	-0.00237949	-3.85946e-06	-2.56445e-05	-4.93954e-08
1.55	0.00387332	0.000304966	-0.00238095	-3.65299e-06	-2.64857e-05	-5.00224e-08
1.56	0.00384848	0.000287091	-0.00238204	-3.43595e-06	-2.73074e-05	-5.0651e-08
1.57	0.00382516	0.000268447	-0.0023828	-3.2095e-06	-2.81104e-05	-5.12805e-08
1.58	0.00380332	0.000249122	-0.00238326	-2.97471e-06	-2.88948e-05	-5.191e-08
1.59	0.00378298	0.00022921	-0.00238346	-2.73272e-06	-2.96605e-05	-5.25385e-08
1.6	0.0037642	0.000208803	-0.00238343	-2.48462e-06	-3.04067e-05	-5.3165e-08
1.61	0.0037471	0.000187993	-0.00238322	-2.23154e-06	-3.11321e-05	-5.3788e-08
1.62	0.00373184	0.000166868	-0.00238287	-1.97456e-06	-3.18349e-05	-5.4406e-08
1.63	0.00371861	0.000145518	-0.00238243	-1.71473e-06	-3.25126e-05	-5.50171e-08
1.64	0.00370765	0.000124028	-0.00238194	-1.45309e-06	-3.31624e-05	-5.56198e-08
1.65	0.00369924	0.00010248	-0.00238146	-1.19064e-06	-3.37812e-05	-5.62119e-08
1.66	0.00369367	8.09526e-05	-0.00238103	-9.28333e-07	-3.43655e-05	-5.67918e-08
1.67	0.00369123	5.95216e-05	-0.0023807	-6.67078e-07	-3.49118e-05	-5.73575e-08
1.68	0.00369222	3.8258e-05	-0.00238052	-4.07739e-07	-3.54168e-05	-5.79073e-08
1.69	0.00369691	1.72261e-05	-0.00238053	-1.51097e-07	-3.58771e-05	-5.84395e-08
1.7	0.00370556	-3.51188e-06	-0.0023808	1.02091e-07	-3.62898e-05	-5.89527e-08
1.71	0.00371838	-2.39012e-05	-0.00238135	3.51157e-07	-3.66524e-05	-5.94456e-08
1.72	0.00373553	-4.38899e-05	-0.00238223	5.95474e-07	-3.69629e-05	-5.99173e-08
1.73	0.00375713	-6.34334e-05	-0.00238349	8.3449e-07	-3.72202e-05	-6.0367e-08
1.74	0.00378324	-8.24905e-05	-0.00238517	1.06771e-06	-3.74234e-05	-6.07941e-08
1.75	0.00381385	-0.000101026	-0.0023873	1.2947e-06	-3.75726e-05	-6.11983e-08
1.76	0.0038489	-0.000119011	-0.00238991	1.51508e-06	-3.76686e-05	-6.15796e-08
1.77	0.0038883	-0.000136418	-0.00239304	1.72856e-06	-3.77126e-05	-6.19381e-08
1.78	0.00393187	-0.000153228	-0.00239672	1.93486e-06	-3.77066e-05	-6.22742e-08
1.79	0.00397941	-0.000169425	-0.00240096	2.1338e-06	-3.7653e-05	-6.25884e-08
1.8	0.00403071	-0.000184996	-0.00240578	2.32522e-06	-3.75543e-05	-6.28816e-08
1.81	0.00408551	-0.000199935	-0.00241121	2.50902e-06	-3.74137e-05	-6.31543e-08
1.82	0.00414356	-0.000214239	-0.00241725	2.68517e-06	-3.72341e-05	-6.34074e-08
1.83	0.00420456	-0.000227919	-0.00242392	2.85378e-06	-3.70189e-05	-6.36417e-08
1.84	0.00426833	-0.000240957	-0.00243122	3.01466e-06	-3.67705e-05	-6.38583e-08
1.85	0.00433458	-0.000253382	-0.00243915	3.16811e-06	-3.64922e-05	-6.4058e-08
1.86	0.00440315	-0.000265185	-0.00244772	3.31407e-06	-3.61861e-05	-6.42419e-08
1.87	0.00447382	-0.000276397	-0.00245691	3.45285e-06	-3.58546e-05	-6.44107e-08
1.88	0.00454648	-0.000287022	-0.00246671	3.58454e-06	-3.54993e-05	-6.45654e-08
1.89	0.00462097	-0.000297088	-0.00247712	3.70945e-06	-3.51219e-05	-6.47067e-08
1.9	0.00469721	-0.000306616	-0.00248812	3.82784e-06	-3.47237e-05	-6.48355e-08
1.91	0.00477508	-0.000315681	-0.0024997	3.94048e-06	-3.43057e-05	-6.49534e-08
1.92	0.00485456	-0.000324248	-0.00251182	4.0471e-06	-3.38688e-05	-6.5065e-08
1.93	0.00493556	-0.000332363	-0.00252446	4.14821e-06	-3.34137e-05	-6.51672e-08
1.94	0.00501801	-0.000340046	-0.00253759	4.24405e-06	-3.29413e-05	-6.52601e-08
1.95	0.00510181	-0.00034735	-0.00255119	4.33523e-06	-3.24531e-05	-6.53443e-08
1.96	0.00518684	-0.000354305	-0.00256521	4.4221e-06	-3.19503e-05	-6.54206e-08
1.97	0.00527297	-0.000360923	-0.00257962	4.50484e-06	-3.14347e-05	-6.54902e-08
1.98	0.00536002	-0.000367235	-0.00259437	4.58384e-06	-3.09085e-05	-6.55541e-08
1.99	0.00544774	-0.000373291	-0.00260942	4.65963e-06	-3.03745e-05	-6.56132e-08
2	0.00553585	-0.000379088	-0.00262473	4.73226e-06	-2.98363e-05	-6.5669e-08
2.01	0.00562402	-0.000384677	-0.00264024	4.80229e-06	-2.92977e-05	-6.57224e-08
2.02	0.00571189	-0.000390071	-0.0026559	4.86988e-06	-2.8763e-05	-6.57746e-08
2.03	0.00579906	-0.000395299	-0.00267167	4.93538e-06	-2.82372e-05	-6.58267e-08
2.04	0.00588507	-0.000400373	-0.00268747	4.99894e-06	-2.77255e-05	-6.58802e-08
2.05	0.00596947	-0.000405304	-0.00270327	5.06071e-06	-2.72333e-05	-6.5936e-08
2.06	0.0060518	-0.000410092	-0.00271899	5.12069e-06	-2.67664e-05	-6.59957e-08
2.07	0.00613153	-0.000414799	-0.00273459	5.17954e-06	-2.63306e-05	-6.60597e-08
2.08	0.00620824	-0.000419368	-0.00275	5.23669e-06	-2.59314e-05	-6.61298e-08
2.09	0.00628145	-0.000423838	-0.00276517	5.29253e-06	-2.55743e-05	-6.62065e-08
2.1	0.00635075	-0.000428177	-0.00278004	5.34675e-06	-2.52641e-05	-6.6291e-08
2.11	0.00641577	-0.000432403	-0.00279455	5.39951e-06	-2.50055e-05	-6.63839e-08
2.12	0.00647616	-0.000436488	-0.00280864	5.45053e-06	-2.48023e-05	-6.64859e-08
2.13	0.00653166	-0.000440438	-0.00282228	5.49985e-06	-2.4658e-05	-6.65973e-08
2.14	0.00658204	-0.00044423	-0.00283539	5.54722e-06	-2.4575e-05	-6.67185e-08
2.15	0.00662714	-0.000447861	-0.00284793	5.59258e-06	-2.45554e-05	-6.68497e-08
2.16	0.00666686	-0.000451309	-0.00285987	5.63571e-06	-2.46003e-05	-6.69911e-08
2.17	0.00670115	-0.000454567	-0.00287114	5.6765e-06	-2.47105e-05	-6.71425e-08
2.18	0.00673001	-0.000457616	-0.0028817	5.71474e-06	-2.48859e-05	-6.7304e-08
2.19	0.00675347	-0.000460447	-0.00289153	5.75031e-06	-2.5126e-05	-6.74753e-08
2.2	0.00677163	-0.000463043	-0.00290058	5.78302e-06	-2.54299e-05	-6.76562e-08
2.21	0.00678457	-0.000465394	-0.00290882	5.81275e-06	-2.57965e-05	-6.78463e-08
2.22	0.0067924	-0.000467486	-0.00291622	5.83935e-06	-2.62244e-05	-6.80453e-08
2.23	0.00679526	-0.000469309	-0.00292275	5.86268e-06	-2.67122e-05	-6.82529e-08
2.24	0.00679326	-0.000470851	-0.0029284	5.88261e-06	-2.72584e-05	-6.84687e-08
2.25	0.00678651	-0.000472103	-0.00293314	5.89903e-06	-2.78618e-05	-6.86922e-08
2.26	0.00677511	-0.000473055	-0.00293697	5.91183e-06	-2.85212e-05	-6.89233e-08
2.27	0.00675913	-0.000473698	-0.00293986	5.9209e-06	-2.92357e-05	-6.91616e-08
2.28	0.00673863	-0.000474025	-0.00294181	5.92614e-06	-3.00044e-05	-6.94069e-08
2.29	0.00671365	-0.000474026	-0.00294282	5.92747e-06	-3.0827e-05	-6.96588e-08
2.3	0.00668423	-0.000473696	-0.00294289	5.92481e-06	-3.17031e-05	-6.99172e-08
2.31	0.00665036	-0.000473028	-0.00294203	5.91809e-06	-3.26324e-05	-7.01819e-08
2.32	0.00661206	-0.000472018	-0.00294025	5.90725e-06	-3.36149e-05	-7.04527e-08
2.33	0.00656935	-0.000470663	-0.00293755	5.89226e-06	-3.46504e-05	-7.07294e-08
2.34	0.00652223	-0.000468971	-0.00293397	5.87321e-06	-3.57385e-05	-7.10117e-08
2.35	0.00647076	-0.000466909	-0.00292951	5.84977e-06	-3.68788e-05	-7.12998e-08
2.36	0.00641498	-0.000464512	-0.00292422	5.82229e-06	-3.80706e-05	-7.1593e-08
2.37	0.006355	-0.000461762	-0.00291811	5.79061e-06	-3.93126e-05	-7.18912e-08
2.38	0.00629094	-0.000458684	-0.00291123	5.75498e-06	-4.06032e-05	-7.21938e-08
2.39	0.00622298	-0.000455273	-0.00290361	5.7154e-06	-4.19404e-05	-7.25007e-08
2.4	0.00615133	-0.000451553	-0.0028953	5.67212e-06	-4.33216e-05	-7.28112e-08
2.41	0.00607625	-0.000447532	-0.00288635	5.62527e-06	-4.47437e-05	-7.3125e-08
2.42	0.00599804	-0.000443237	-0.00287679	5.57515e-06	-4.6203e-05	-7.34415e-08
2.43	0.00591703	-0.000438687	-0.00286669	5.522e-06	-4.76955e-05	-7.37603e-08
2.44	0.00583358	-0.000433911	-0.0028561	5.46617e-06	-4.9217e-05	-7.40807e-08
2.45	0.00574808	-0.00042894	-0.00284507	5.40804e-06	-5.07629e-05	-7.44023e-08
2.46	0.00566091	-0.000423811	-0.00283367	5.34805e-06	-5.23284e-05	-7.47244e-08
2.47	0.00557254	-0.000418543	-0.00282196	5.28645e-06	-5.39082e-05	-7.5047e-08
2.48	0.0054833	-0.000413193	-0.00280999	5.22391e-06	-5.54982e-05	-7.53695e-08
2.49	0.00539361	-0.00040779	-0.00279782	5.16078e-06	-5.70933e-05	-7.56918e-08
2.5	0.00530379	-0.000402387	-0.00278552	5.09769e-06	-5.86897e-05	-7.60136e-08
2.51	0.00521419	-0.000397018	-0.00277315	5.03507e-06	-6.02833e-05	-7.6335e-08
2.52	0.00512508	-0.000391734	-0.00276077	4.97352e-06	-6.18709e-05	-7.66561e-08
2.53	0.00503669	-0.000386576	-0.00274844	4.91353e-06	-6.34494e-05	-7.69771e-08
2.54	0.00494923	-0.000381591	-0.0027362	4.85568e-06	-6.50167e-05	-7.72985e-08
2.55	0.00486283	-0.000376822	-0.00272413	4.80048e-06	-6.65708e-05	-7.76207e-08
2.56	0.0047776	-0.000372313	-0.00271227	4.74847e-06	-6.81107e-05	-7.79444e-08
2.57	0.0046936	-0.000368107	-0.00270066	4.70015e-06	-6.96353e-05	-7.82703e-08
2.58	0.00461086	-0.000364247	-0.00268937	4.65604e-06	-7.11446e-05	-7.85992e-08
2.59	0.00452939	-0.000360774	-0.00267843	4.61663e-06	-7.26382e-05	-7.8932e-08
2.6	0.00444917	-0.00035773	-0.00266788	4.58245e-06	-7.41163e-05	-7.92695e-08
2.61	0.00437011	-0.000355135	-0.00265776	4.55374e-06	-7.55797e-05	-7.9613e-08
2.62	0.00429227	-0.000353045	-0.0026481	4.53115e-06	-7.70281e-05	-7.99631e-08
2.63	0.00421556	-0.000351482	-0.00263894	4.51496e-06	-7.84622e-05	-8.03211e-08
2.64	0.00414002	-0.000350488	-0.0026303	4.50567e-06	-7.98817e-05	-8.06875e-08
2.65	0.00406564	-0.000350088	-0.00262221	4.50357e-06	-8.12866e-05	-8.10635e-08
2.66	0.00399248	-0.000350315	-0.00261467	4.50908e-06	-8.26761e-05	-8.14495e-08
2.67	0.00392058	-0.000351193	-0.00260771	4.52247e-06	-8.40497e-05	-8.18465e-08
2.68	0.00385007	-0.00035275	-0.00260134	4.54408e-06	-8.54059e-05	-8.22549e-08
2.69	0.00378107	-0.000355006	-0.00259556	4.57414e-06	-8.67434e-05	-8.26754e-08
2.7	0.00371372	-0.000357983	-0.00259037	4.61292e-06	-8.80602e-05	-8.31083e-08
2.71	0.0036482	-0.000361701	-0.00258577	4.66063e-06	-8.93544e-05	-8.35538e-08
2.72	0.00358468	-0.00036618	-0.00258177	4.71752e-06	-9.06237e-05	-8.4012e-08
2.73	0.00352338	-0.000371388	-0.00257833	4.78326e-06	-9.18659e-05	-8.44841e-08
2.74	0.00346447	-0.000377376	-0.00257546	4.85837e-06	-9.30788e-05	-8.49691e-08
2.75	0.00340812	-0.000384113	-0.00257313	4.94255e-06	-9.42602e-05	-8.54676e-08
2.76	0.00335449	-0.000391618	-0.00257133	5.03595e-06	-9.54085e-05	-8.5979e-08
2.77	0.0033037	-0.000399863	-0.00257002	5.13828e-06	-9.6522e-05	-8.65038e-08
2.78	0.00325584	-0.000408846	-0.00256917	5.24948e-06	-9.75998e-05	-8.70412e-08
2.79	0.00321097	-0.000418533	-0.00256876	5.36916e-06	-9.86411e-05	-8.75914e-08
2.8	0.00316909	-0.000428907	-0.00256875	5.49708e-06	-9.9646e-05	-8.81538e-08
2.81	0.00313017	-0.000439926	-0.0025691	5.63276e-06	-0.000100615	-8.87284e-08
2.82	0.00309411	-0.000451557	-0.00256977	5.77577e-06	-0.000101549	-8.93147e-08
2.83	0.00306082	-0.000463751	-0.00257072	5.92552e-06	-0.000102449	-8.99121e-08
2.84	0.00303011	-0.000476459	-0.00257191	6.08144e-06	-0.000103317	-9.05202e-08
2.85	0.00300179	-0.000489625	-0.00257328	6.24282e-06	-0.000104157	-9.11382e-08
2.86	0.00297566	-0.000503188	-0.0025748	6.40895e-06	-0.000104969	-9.17654e-08
2.87	0.00295147	-0.000517083	-0.00257641	6.57901e-06	-0.000105757	-9.2401e-08
2.88	0.00292899	-0.000531243	-0.00257807	6.75221e-06	-0.000106524	-9.30439e-08
2.89	0.00290797	-0.000545594	-0.00257974	6.92765e-06	-0.000107273	-9.3693e-08
2.9	0.00288816	-0.000560056	-0.00258137	7.10436e-06	-0.000108007	-9.43474e-08
2.91	0.00286936	-0.000574557	-0.0025829	7.28147e-06	-0.000108728	-9.50053e-08
2.92	0.00285136	-0.000589012	-0.00258431	7.45795e-06	-0.000109438	-9.56655e-08
2.93	0.00283397	-0.000603342	-0.00258555	7.63285e-06	-0.000110141	-9.63264e-08
2.94	0.00281705	-0.000617462	-0.00258658	7.80514e-06	-0.000110837	-9.69864e-08
2.95	0.00280046	-0.000631289	-0.00258737	7.97382e-06	-0.000111528	-9.76438e-08
2.96	0.00278412	-0.00064474	-0.00258787	8.13787e-06	-0.000112216	-9.82969e-08
2.97	0.00276792	-0.00065773	-0.00258806	8.29628e-06	-0.000112901	-9.89438e-08
2.98	0.00275183	-0.000670176	-0.00258791	8.44803e-06	-0.000113585	-9.95828e-08
2.99	0.00273579	-0.000681996	-0.00258739	8.59216e-06	-0.000114267	-1.00212e-07
3	0.00271975	-0.00069311	-0.00258648	8.72766e-06	-0.000114949	-1.00829e-07