# SeaFEM body RAOs file v.1.0
# RAOs units are given in m/m and rad/m for translational and rotational degrees of freedom respectively
DataSets	Raos
SubSets	Body1
numResults	6
Period[s]	Surge	Sway	Heave	Roll	Pitch	Yaw
214.815	0.000418843	1.92379e-06	2.73002	2.46484e-08	4.54675e-06	1.03004e-10
161.111	0.000410319	1.87865e-06	2.6866	2.40866e-08	4.45422e-06	1.01424e-10
128.889	0.000406244	1.85772e-06	2.66605	2.38249e-08	4.40999e-06	1.00677e-10
107.407	0.000403941	1.84661e-06	2.65459	2.36847e-08	4.38498e-06	1.00263e-10
92.0635	0.000402469	1.84026e-06	2.64742	2.3603e-08	4.36901e-06	1.00005e-10
80.5556	0.000401432	1.83651e-06	2.64251	2.35532e-08	4.35775e-06	9.98302e-11
71.6049	0.000400639	1.83433e-06	2.63888	2.35224e-08	4.34913e-06	9.97025e-11
64.4444	0.000399988	1.83317e-06	2.63603	2.35038e-08	4.34207e-06	9.96035e-11
58.5859	0.000399422	1.83272e-06	2.63366	2.34935e-08	4.33593e-06	9.95223e-11
53.7037	0.000398907	1.83278e-06	2.63159	2.34893e-08	4.33033e-06	9.94527e-11
49.5726	0.00039842	1.83325e-06	2.62971	2.34896e-08	4.32504e-06	9.93906e-11
46.0317	0.000397947	1.83403e-06	2.62795	2.34934e-08	4.3199e-06	9.93333e-11
42.963	0.000397478	1.83508e-06	2.62626	2.35e-08	4.31481e-06	9.92789e-11
40.2778	0.000397006	1.83635e-06	2.6246	2.35091e-08	4.30969e-06	9.92263e-11
37.9085	0.000396527	1.83783e-06	2.62295	2.35202e-08	4.30448e-06	9.91745e-11
35.8025	0.000396037	1.83948e-06	2.6213	2.35331e-08	4.29916e-06	9.91229e-11
33.9181	0.000395533	1.84129e-06	2.61962	2.35475e-08	4.29369e-06	9.9071e-11
32.2222	0.000395013	1.84325e-06	2.61791	2.35635e-08	4.28805e-06	9.90184e-11
30.6878	0.000394477	1.84535e-06	2.61616	2.35808e-08	4.28222e-06	9.89649e-11
29.2929	0.000393922	1.84758e-06	2.61436	2.35993e-08	4.27619e-06	9.89101e-11
28.0193	0.000393347	1.84994e-06	2.61252	2.36189e-08	4.26996e-06	9.8854e-11
26.8519	0.000392753	1.85241e-06	2.61061	2.36397e-08	4.2635e-06	9.87964e-11
25.7778	0.000392138	1.855e-06	2.60866	2.36614e-08	4.25682e-06	9.87372e-11
24.7863	0.000391502	1.85769e-06	2.60664	2.36842e-08	4.24992e-06	9.86763e-11
23.8683	0.000390845	1.86049e-06	2.60456	2.37079e-08	4.24278e-06	9.86137e-11
23.0159	0.000390166	1.86338e-06	2.60242	2.37324e-08	4.23541e-06	9.85492e-11
22.2222	0.000389465	1.86637e-06	2.60021	2.37578e-08	4.22779e-06	9.84829e-11
21.4815	0.000388742	1.86946e-06	2.59794	2.3784e-08	4.21994e-06	9.84147e-11
20.7885	0.000387996	1.87263e-06	2.59561	2.3811e-08	4.21185e-06	9.83446e-11
20.1389	0.000387229	1.87589e-06	2.5932	2.38387e-08	4.20351e-06	9.82724e-11
19.5286	0.000386438	1.87923e-06	2.59073	2.38671e-08	4.19493e-06	9.81984e-11