# SeaFEM body kinematics file v.1.0
DataSets	Body data Auto1
SubSets	Movements	Velocities	Accelerations
numResults	18
time[s]	Surge	Sway	Heave	Roll	Pitch	Yaw	Surge_Vel	Sway_Vel	Heave_Vel	Roll_Vel	Pitch_Vel	Yaw_Vel	Surge_Accel	Sway_Accel	Heave_Accel	Roll_Accel	Pitch_Accel	Yaw_Accel
300.038	0.4242	0	0.0937059	0	-0.00257195	0	0.0294911	0	0.0130843	0	-8.81321e-05	0	0.0093286	0	-0.00298451	0	0.000112833	0
300.117	0.426548	0	0.0947259	0	-0.00257853	0	0.0302193	0	0.0128467	0	-7.9283e-05	0	0.00918166	0	-0.003056	0	0.000112102	0
300.195	0.428954	0	0.095727	0	-0.00258443	0	0.0309267	0	0.0126035	0	-7.05447e-05	0	0.00880033	0	-0.00312577	0	0.00011002	0
300.274	0.431414	0	0.0967087	0	-0.00258964	0	0.0316132	0	0.012355	0	-6.19175e-05	0	0.00865173	0	-0.0031943	0	0.000109288	0
300.353	0.433927	0	0.0976707	0	-0.00259417	0	0.0322695	0	0.0121011	0	-5.3459e-05	0	0.00803154	0	-0.00326139	0	0.00010572	0
300.431	0.43649	0	0.0986125	0	-0.00259805	0	0.0329008	0	0.011842	0	-4.51395e-05	0	0.00801549	0	-0.00332483	0	0.000105756	0
300.51	0.439103	0	0.0995337	0	-0.00260128	0	0.0335123	0	0.0115779	0	-3.69281e-05	0	0.00752861	0	-0.0033888	0	0.000102972	0
300.589	0.441762	0	0.100434	0	-0.00260387	0	0.0340958	0	0.011309	0	-2.88757e-05	0	0.00730225	0	-0.00344952	0	0.000101711	0
300.667	0.444466	0	0.101313	0	-0.00260583	0	0.0346512	0	0.0110353	0	-2.0982e-05	0	0.00681368	0	-0.00350954	0	9.89284e-05	0
300.746	0.447213	0	0.10217	0	-0.00260717	0	0.0351871	0	0.0107569	0	-1.32009e-05	0	0.00680845	0	-0.00356707	0	9.88599e-05	0
300.825	0.450002	0	0.103005	0	-0.00260791	0	0.0356977	0	0.0104741	0	-5.56624e-06	0	0.00617029	0	-0.0036233	0	9.52065e-05	0
300.903	0.452829	0	0.103818	0	-0.00260805	0	0.0361771	0	0.0101869	0	1.8879e-06	0	0.00601373	0	-0.00367704	0	9.42716e-05	0
300.982	0.455693	0	0.104608	0	-0.00260761	0	0.0366331	0	0.00989562	0	9.20501e-06	0	0.00557758	0	-0.0037291	0	9.17232e-05	0
301.061	0.458592	0	0.105375	0	-0.00260661	0	0.0370658	0	0.00960029	0	1.63854e-05	0	0.00542359	0	-0.00377986	0	9.08139e-05	0
301.139	0.461524	0	0.106118	0	-0.00260504	0	0.0374645	0	0.00930104	0	2.33638e-05	0	0.00470929	0	-0.00382828	0	8.65692e-05	0
301.218	0.464486	0	0.106838	0	-0.00260293	0	0.0378354	0	0.00899802	0	3.01769e-05	0	0.00471949	0	-0.0038749	0	8.66144e-05	0
301.297	0.467476	0	0.107534	0	-0.0026003	0	0.0381852	0	0.00869138	0	3.68629e-05	0	0.00417001	0	-0.00392017	0	8.33381e-05	0
301.375	0.470493	0	0.108205	0	-0.00259714	0	0.0385041	0	0.00838128	0	4.33635e-05	0	0.00393543	0	-0.00396311	0	8.19012e-05	0
301.454	0.473534	0	0.108852	0	-0.00259348	0	0.0387923	0	0.00806786	0	4.96803e-05	0	0.00338813	0	-0.00400441	0	7.865e-05	0
301.533	0.476596	0	0.109475	0	-0.00258933	0	0.0390605	0	0.00775128	0	5.58718e-05	0	0.00342774	0	-0.00404409	0	7.87329e-05	0
301.611	0.479679	0	0.110072	0	-0.00258469	0	0.0393018	0	0.00743169	0	6.18987e-05	0	0.00270524	0	-0.00408162	0	7.44652e-05	0
301.69	0.482779	0	0.110644	0	-0.00257959	0	0.0395093	0	0.00710919	0	6.7721e-05	0	0.00256743	0	-0.00411753	0	7.35311e-05	0
301.769	0.485894	0	0.11119	0	-0.00257404	0	0.0396928	0	0.00678394	0	7.33937e-05	0	0.00209498	0	-0.00415082	0	7.06635e-05	0
301.847	0.489023	0	0.111711	0	-0.00256805	0	0.0398524	0	0.00645615	0	7.8918e-05	0	0.00196435	0	-0.00418276	0	6.9782e-05	0
301.926	0.492163	0	0.112206	0	-0.00256163	0	0.0399755	0	0.00612589	0	8.42188e-05	0	0.0011653	0	-0.00421344	0	6.49572e-05	0
302.005	0.495312	0	0.112675	0	-0.0025548	0	0.0400701	0	0.00579334	0	8.93412e-05	0	0.00123643	0	-0.00424119	0	6.5252e-05	0
302.083	0.498467	0	0.113117	0	-0.00254758	0	0.0401439	0	0.00545864	0	9.43321e-05	0	0.000639499	0	-0.00426868	0	6.16119e-05	0
302.162	0.501627	0	0.113534	0	-0.00253997	0	0.0401858	0	0.00512188	0	9.91239e-05	0	0.000422809	0	-0.00429377	0	6.01913e-05	0
302.241	0.504789	0	0.113923	0	-0.00253199	0	0.040196	0	0.00478321	0	0.000103719	0	-0.000167713	0	-0.00431629	0	5.66011e-05	0
302.319	0.507951	0	0.114286	0	-0.00252365	0	0.0401876	0	0.00444281	0	0.000108192	0	-4.73959e-05	0	-0.00433706	0	5.70863e-05	0
302.398	0.511111	0	0.114622	0	-0.00251497	0	0.0401526	0	0.00410089	0	0.000112495	0	-0.000844784	0	-0.00435582	0	5.22981e-05	0
302.477	0.514267	0	0.114931	0	-0.00250596	0	0.0400826	0	0.00375759	0	0.000116582	0	-0.000934361	0	-0.00437285	0	5.15771e-05	0
302.555	0.517417	0	0.115213	0	-0.00249663	0	0.0399899	0	0.003413	0	0.00012052	0	-0.00142508	0	-0.00438831	0	4.8535e-05	0
302.634	0.520558	0	0.115468	0	-0.002487	0	0.0398675	0	0.00306729	0	0.000124271	0	-0.00168816	0	-0.00440155	0	4.68065e-05	0
302.713	0.523689	0	0.115696	0	-0.00247708	0	0.0397158	0	0.00272054	0	0.000127836	0	-0.00217225	0	-0.00441403	0	4.38043e-05	0
302.791	0.526806	0	0.115896	0	-0.00246689	0	0.0395425	0	0.0023729	0	0.000131259	0	-0.00223477	0	-0.00442409	0	4.32019e-05	0
302.87	0.529909	0	0.116069	0	-0.00245644	0	0.039343	0	0.00202453	0	0.000134513	0	-0.0028372	0	-0.00443271	0	3.9518e-05	0
302.949	0.532996	0	0.116215	0	-0.00244573	0	0.0391127	0	0.00167558	0	0.000137572	0	-0.00301999	0	-0.00443892	0	3.82327e-05	0
303.027	0.536063	0	0.116333	0	-0.00243479	0	0.0388587	0	0.00132621	0	0.000140476	0	-0.00343779	0	-0.00444338	0	3.55921e-05	0
303.106	0.539109	0	0.116423	0	-0.00242363	0	0.0385815	0	0.000976543	0	0.000143229	0	-0.00360788	0	-0.00444758	0	3.43928e-05	0
303.185	0.542132	0	0.116487	0	-0.00241226	0	0.0382723	0	0.000626621	0	0.000145778	0	-0.00425479	0	-0.0044493	0	3.03941e-05	0
303.263	0.54513	0	0.116522	0	-0.0024007	0	0.0379369	0	0.000276668	0	0.000148157	0	-0.00427282	0	-0.00444839	0	3.00848e-05	0
303.342	0.5481	0	0.11653	0	-0.00238896	0	0.0375813	0	-7.32197e-05	0	0.000150402	0	-0.0047679	0	-0.00444696	0	2.69789e-05	0
303.421	0.551042	0	0.116511	0	-0.00237704	0	0.0371977	0	-0.000422906	0	0.000152466	0	-0.00498594	0	-0.00444327	0	2.54899e-05	0
303.499	0.553952	0	0.116464	0	-0.00236497	0	0.0367866	0	-0.000772234	0	0.000154353	0	-0.00546931	0	-0.00443786	0	2.24635e-05	0
303.578	0.556829	0	0.116389	0	-0.00235276	0	0.0363575	0	-0.00112105	0	0.000156118	0	-0.00543971	0	-0.00443095	0	2.23937e-05	0
303.657	0.559672	0	0.116287	0	-0.00234042	0	0.035905	0	-0.00146927	0	0.000157729	0	-0.00606389	0	-0.00442269	0	1.85564e-05	0
303.735	0.562477	0	0.116158	0	-0.00232795	0	0.0354235	0	-0.00181681	0	0.000159154	0	-0.00617784	0	-0.00441293	0	1.76644e-05	0
303.814	0.565245	0	0.116001	0	-0.00231538	0	0.0349219	0	-0.00216351	0	0.000160444	0	-0.00657559	0	-0.00440147	0	1.5132e-05	0
303.893	0.567971	0	0.115818	0	-0.00230271	0	0.0344007	0	-0.00250923	0	0.000161603	0	-0.0066733	0	-0.00438772	0	1.43437e-05	0
303.971	0.570656	0	0.115607	0	-0.00228996	0	0.0338494	0	-0.00285381	0	0.000162569	0	-0.00734273	0	-0.00437353	0	1.02248e-05	0
304.05	0.573296	0	0.115369	0	-0.00227714	0	0.0332752	0	-0.00319724	0	0.000163385	0	-0.0072561	0	-0.00435763	0	1.05155e-05	0
304.129	0.575891	0	0.115104	0	-0.00226425	0	0.0326853	0	-0.00353936	0	0.000164093	0	-0.00774154	0	-0.00434027	0	7.47459e-06	0
304.207	0.578438	0	0.114812	0	-0.00225132	0	0.0320703	0	-0.00388009	0	0.000164638	0	-0.00789312	0	-0.00432161	0	6.37863e-06	0
304.286	0.580936	0	0.114493	0	-0.00223835	0	0.0314364	0	-0.0042193	0	0.000165056	0	-0.00822335	0	-0.00430212	0	4.24619e-06	0
304.365	0.583384	0	0.114148	0	-0.00222536	0	0.0307842	0	-0.00455688	0	0.000165351	0	-0.00835654	0	-0.00428046	0	3.26302e-06	0
304.443	0.585779	0	0.113776	0	-0.00221234	0	0.030107	0	-0.00489271	0	0.000165484	0	-0.00885986	0	-0.00425814	0	1.26358e-07	0
304.522	0.58812	0	0.113378	0	-0.00219933	0	0.0294097	0	-0.00522669	0	0.000165485	0	-0.00886679	0	-0.00423338	0	-1.14912e-07	0
304.601	0.590406	0	0.112954	0	-0.00218631	0	0.0286973	0	-0.00555878	0	0.000165381	0	-0.00924491	0	-0.00420896	0	-2.51487e-06	0
304.679	0.592635	0	0.112504	0	-0.00217331	0	0.0279639	0	-0.00588887	0	0.00016514	0	-0.00940207	0	-0.00418235	0	-3.62568e-06	0
304.758	0.594805	0	0.112027	0	-0.00216033	0	0.0272101	0	-0.00621681	0	0.000164765	0	-0.00976449	0	-0.00415492	0	-5.92521e-06	0
304.837	0.596916	0	0.111526	0	-0.00214739	0	0.0264436	0	-0.00654249	0	0.000164301	0	-0.00972146	0	-0.00412515	0	-5.86605e-06	0
304.915	0.598965	0	0.110998	0	-0.00213448	0	0.0256605	0	-0.00686586	0	0.000163725	0	-0.0101875	0	-0.00409583	0	-8.76019e-06	0
304.994	0.600952	0	0.110445	0	-0.00212163	0	0.0248566	0	-0.00718683	0	0.000163014	0	-0.0102511	0	-0.00406515	0	-9.31135e-06	0
305.073	0.602876	0	0.109868	0	-0.00210884	0	0.024039	0	-0.00750532	0	0.00016221	0	-0.0105335	0	-0.00403268	0	-1.11291e-05	0
305.151	0.604734	0	0.109265	0	-0.00209611	0	0.0232045	0	-0.00782131	0	0.000161294	0	-0.0106827	0	-0.0040001	0	-1.21692e-05	0
305.23	0.606526	0	0.108637	0	-0.00208346	0	0.0223537	0	-0.00813466	0	0.000160269	0	-0.0109489	0	-0.00396562	0	-1.38851e-05	0
305.309	0.608251	0	0.107985	0	-0.0020709	0	0.0214912	0	-0.00844523	0	0.000159164	0	-0.0109773	0	-0.00393094	0	-1.42087e-05	0
305.387	0.609907	0	0.107308	0	-0.00205842	0	0.0206151	0	-0.00875308	0	0.000157967	0	-0.0112962	0	-0.00389551	0	-1.62233e-05	0
305.466	0.611494	0	0.106608	0	-0.00204605	0	0.0197232	0	-0.00905805	0	0.000156665	0	-0.0113798	0	-0.00385789	0	-1.68599e-05	0
305.545	0.61301	0	0.105883	0	-0.00203378	0	0.0188198	0	-0.00936006	0	0.000155286	0	-0.0115861	0	-0.00382038	0	-1.82061e-05	0
305.623	0.614455	0	0.105135	0	-0.00202162	0	0.0179057	0	-0.00965911	0	0.000153832	0	-0.0116509	0	-0.00378175	0	-1.87286e-05	0
305.702	0.615827	0	0.104364	0	-0.00200958	0	0.0169765	0	-0.00995507	0	0.00015228	0	-0.0119733	0	-0.00374334	0	-2.07286e-05	0
305.781	0.617125	0	0.103569	0	-0.00199766	0	0.0160358	0	-0.010248	0	0.000150651	0	-0.0119425	0	-0.00370364	0	-2.06873e-05	0
305.859	0.61835	0	0.102751	0	-0.00198588	0	0.0150873	0	-0.0105377	0	0.000148966	0	-0.0121706	0	-0.00366315	0	-2.21348e-05	0
305.938	0.619499	0	0.101911	0	-0.00197423	0	0.0141271	0	-0.0108243	0	0.000147204	0	-0.0122396	0	-0.00362155	0	-2.26558e-05	0
306.017	0.620572	0	0.101048	0	-0.00196272	0	0.013156	0	-0.0111075	0	0.000145369	0	-0.01245	0	-0.00358005	0	-2.39957e-05	0
306.095	0.621569	0	0.100164	0	-0.00195136	0	0.0121796	0	-0.0113875	0	0.000143495	0	-0.012373	0	-0.00353733	0	-2.36454e-05	0
306.174	0.622488	0	0.0992569	0	-0.00194014	0	0.0111954	0	-0.011664	0	0.000141567	0	-0.0126497	0	-0.00349291	0	-2.53639e-05	0
306.253	0.62333	0	0.0983285	0	-0.00192908	0	0.0102005	0	-0.0119371	0	0.000139569	0	-0.012642	0	-0.00345024	0	-2.5411e-05	0
306.331	0.624093	0	0.0973788	0	-0.00191818	0	0.00920038	0	-0.0122068	0	0.000137534	0	-0.012784	0	-0.00340571	0	-2.6327e-05	0
306.41	0.624777	0	0.0964081	0	-0.00190745	0	0.00819283	0	-0.0124729	0	0.000135448	0	-0.0128306	0	-0.0033611	0	-2.66816e-05	0
306.489	0.625382	0	0.0954165	0	-0.00189687	0	0.00717859	0	-0.0127356	0	0.000133317	0	-0.012955	0	-0.00331655	0	-2.74883e-05	0
306.567	0.625906	0	0.0944044	0	-0.00188647	0	0.00616105	0	-0.0129947	0	0.000131162	0	-0.0129139	0	-0.00327187	0	-2.73062e-05	0
306.646	0.626351	0	0.0933721	0	-0.00187624	0	0.00513904	0	-0.0132503	0	0.000128975	0	-0.0130682	0	-0.00322635	0	-2.82816e-05	0
306.725	0.626715	0	0.0923198	0	-0.00186618	0	0.0041113	0	-0.0135023	0	0.00012675	0	-0.0130597	0	-0.00317971	0	-2.82874e-05	0
306.803	0.626998	0	0.0912478	0	-0.0018563	0	0.00308106	0	-0.0137506	0	0.000124505	0	-0.0131318	0	-0.00313412	0	-2.87623e-05	0
306.882	0.627199	0	0.0901564	0	-0.00184659	0	0.00204738	0	-0.0139954	0	0.000122237	0	-0.0131471	0	-0.0030875	0	-2.88996e-05	0
306.961	0.62732	0	0.0890459	0	-0.00183707	0	0.00101098	0	-0.0142365	0	0.000119949	0	-0.0132014	0	-0.0030419	0	-2.92646e-05	0
307.039	0.627358	0	0.0879166	0	-0.00182772	0	-2.61379e-05	0	-0.0144739	0	0.000117654	0	-0.0131652	0	-0.00299424	0	-2.90747e-05	0
307.118	0.627316	0	0.0867688	0	-0.00181855	0	-0.00106428	0	-0.0147076	0	0.00011535	0	-0.0132272	0	-0.00294766	0	-2.94812e-05	0
307.197	0.627191	0	0.0856027	0	-0.00180957	0	-0.00210385	0	-0.0149376	0	0.000113035	0	-0.0132014	0	-0.002901	0	-2.93521e-05	0
307.275	0.626985	0	0.0844187	0	-0.00180077	0	-0.00314414	0	-0.015164	0	0.000110715	0	-0.0132463	0	-0.0028544	0	-2.96443e-05	0
307.354	0.626696	0	0.083217	0	-0.00179215	0	-0.00418205	0	-0.0153867	0	0.000108407	0	-0.0131403	0	-0.00280768	0	-2.90218e-05	0
307.433	0.626327	0	0.0819979	0	-0.00178371	0	-0.00521861	0	-0.0156058	0	0.000106106	0	-0.0132117	0	-0.0027611	0	-2.94651e-05	0
307.511	0.625875	0	0.0807617	0	-0.00177546	0	-0.00625494	0	-0.0158211	0	0.000103805	0	-0.0131348	0	-0.00271341	0	-2.90173e-05	0
307.59	0.625343	0	0.0795088	0	-0.00176738	0	-0.0072904	0	-0.0160327	0	0.000101509	0	-0.0131907	0	-0.00266682	0	-2.93533e-05	0
307.669	0.624728	0	0.0782393	0	-0.00175949	0	-0.00831971	0	-0.0162407	0	9.92494e-05	0	-0.0129771	0	-0.00262003	0	-2.80855e-05	0
307.747	0.624034	0	0.0769536	0	-0.00175177	0	-0.00934527	0	-0.016445	0	9.70121e-05	0	-0.0130955	0	-0.00257447	0	-2.87837e-05	0
307.826	0.623258	0	0.075652	0	-0.00174422	0	-0.0103697	0	-0.0166457	0	9.4782e-05	0	-0.0129474	0	-0.00252773	0	-2.7903e-05	0
307.905	0.622402	0	0.0743348	0	-0.00173685	0	-0.0113879	0	-0.0168427	0	9.25889e-05	0	-0.0129398	0	-0.00248208	0	-2.78437e-05	0
307.983	0.621467	0	0.0730022	0	-0.00172965	0	-0.0123995	0	-0.0170361	0	9.04361e-05	0	-0.0127753	0	-0.00243533	0	-2.68715e-05	0
308.062	0.620452	0	0.0716545	0	-0.00172262	0	-0.0134093	0	-0.0172259	0	8.82954e-05	0	-0.0128978	0	-0.00238976	0	-2.75427e-05	0
308.141	0.619357	0	0.070292	0	-0.00171576	0	-0.0144135	0	-0.0174122	0	8.619e-05	0	-0.0126308	0	-0.00234493	0	-2.59747e-05	0
308.219	0.618184	0	0.068915	0	-0.00170906	0	-0.015408	0	-0.0175949	0	8.41429e-05	0	-0.0126523	0	-0.0022993	0	-2.60618e-05	0
308.298	0.616933	0	0.0675238	0	-0.00170252	0	-0.0163974	0	-0.017774	0	8.21286e-05	0	-0.0124995	0	-0.00225553	0	-2.51393e-05	0
308.377	0.615604	0	0.0661187	0	-0.00169614	0	-0.0173809	0	-0.0179497	0	8.01507e-05	0	-0.0125067	0	-0.00221089	0	-2.51471e-05	0
308.455	0.614199	0	0.0646998	0	-0.00168991	0	-0.0183524	0	-0.0181219	0	7.82461e-05	0	-0.0121925	0	-0.00216701	0	-2.32655e-05	0
308.534	0.612717	0	0.0632675	0	-0.00168383	0	-0.0193151	0	-0.0182907	0	7.63969e-05	0	-0.0122801	0	-0.00212441	0	-2.37416e-05	0
308.613	0.61116	0	0.0618221	0	-0.00167789	0	-0.020272	0	-0.0184561	0	7.45837e-05	0	-0.012049	0	-0.00208158	0	-2.23467e-05	0
308.691	0.609528	0	0.0603638	0	-0.00167209	0	-0.0212176	0	-0.0186182	0	7.28408e-05	0	-0.01199	0	-0.00203888	0	-2.19559e-05	0
308.77	0.607822	0	0.0588929	0	-0.00166643	0	-0.0221513	0	-0.0187769	0	7.11709e-05	0	-0.0117444	0	-0.00199704	0	-2.04825e-05	0
308.849	0.606043	0	0.0574097	0	-0.00166089	0	-0.0230792	0	-0.0189324	0	6.95388e-05	0	-0.0118456	0	-0.00195642	0	-2.10038e-05	0
308.927	0.604191	0	0.0559143	0	-0.00165548	0	-0.0239968	0	-0.0190847	0	6.79708e-05	0	-0.0114827	0	-0.0019155	0	-1.88508e-05	0
309.006	0.602268	0	0.0544071	0	-0.00165019	0	-0.0248995	0	-0.0192338	0	6.64934e-05	0	-0.0114678	0	-0.0018758	0	-1.87042e-05	0
309.085	0.600274	0	0.0528882	0	-0.00164502	0	-0.025793	0	-0.0193798	0	6.50745e-05	0	-0.0112463	0	-0.00183596	0	-1.73616e-05	0
309.163	0.59821	0	0.051358	0	-0.00163995	0	-0.0266766	0	-0.0195228	0	6.37171e-05	0	-0.0112202	0	-0.00179725	0	-1.71551e-05	0
309.242	0.596077	0	0.0498167	0	-0.00163499	0	-0.0275431	0	-0.0196627	0	6.24641e-05	0	-0.0108082	0	-0.00175928	0	-1.46939e-05	0
309.321	0.593877	0	0.0482645	0	-0.00163012	0	-0.0283964	0	-0.0197996	0	6.12924e-05	0	-0.0108848	0	-0.00172162	0	-1.5089e-05	0
309.399	0.591609	0	0.0467016	0	-0.00162535	0	-0.0292406	0	-0.0199336	0	6.01777e-05	0	-0.0105783	0	-0.00168471	0	-1.32462e-05	0
309.478	0.589276	0	0.0451283	0	-0.00162065	0	-0.030069	0	-0.0200647	0	5.91596e-05	0	-0.0104828	0	-0.00164893	0	-1.2634e-05	0
309.557	0.586879	0	0.0435448	0	-0.00161604	0	-0.0308813	0	-0.020193	0	5.82399e-05	0	-0.0101646	0	-0.00161301	0	-1.07316e-05	0
309.635	0.584418	0	0.0419513	0	-0.00161149	0	-0.0316849	0	-0.0203186	0	5.73748e-05	0	-0.0102666	0	-0.00157934	0	-1.12584e-05	0
309.714	0.581894	0	0.040348	0	-0.00160701	0	-0.0324747	0	-0.0204415	0	5.65947e-05	0	-0.00981256	0	-0.00154531	0	-8.57224e-06	0
309.793	0.579309	0	0.0387352	0	-0.00160258	0	-0.0332454	0	-0.0205617	0	5.593e-05	0	-0.00977974	0	-0.00151156	0	-8.32463e-06	0
309.871	0.576664	0	0.037113	0	-0.00159821	0	-0.0340038	0	-0.0206794	0	5.53407e-05	0	-0.00950121	0	-0.00147963	0	-6.65535e-06	0
309.95	0.573959	0	0.0354817	0	-0.00159387	0	-0.0347495	0	-0.0207945	0	5.48288e-05	0	-0.0094606	0	-0.00144786	0	-6.37035e-06	0
310.029	0.571197	0	0.0338414	0	-0.00158958	0	-0.0354739	0	-0.0209072	0	5.44448e-05	0	-0.00895641	0	-0.00141678	0	-3.38907e-06	0
310.107	0.568379	0	0.0321923	0	-0.0015853	0	-0.036182	0	-0.0210175	0	5.41594e-05	0	-0.00904554	0	-0.00138708	0	-3.8659e-06	0
310.186	0.565505	0	0.0305346	0	-0.00158105	0	-0.036879	0	-0.0211255	0	5.39419e-05	0	-0.00867394	0	-0.00135807	0	-1.66405e-06	0
310.265	0.562577	0	0.0288686	0	-0.00157681	0	-0.0375569	0	-0.0212313	0	5.38385e-05	0	-0.00856009	0	-0.00133022	0	-9.64009e-07	0
310.343	0.559596	0	0.0271943	0	-0.00157258	0	-0.0382154	0	-0.0213348	0	5.38502e-05	0	-0.00818012	0	-0.00130221	0	1.27713e-06	0
310.422	0.556564	0	0.0255119	0	-0.00156834	0	-0.038864	0	-0.0214362	0	5.39228e-05	0	-0.00830823	0	-0.0012765	0	5.67313e-07	0
310.501	0.553482	0	0.0238217	0	-0.00156409	0	-0.0394964	0	-0.0215356	0	5.40913e-05	0	-0.0077705	0	-0.00125037	0	3.71642e-06	0
310.579	0.550351	0	0.0221237	0	-0.00155983	0	-0.0401065	0	-0.021633	0	5.43914e-05	0	-0.00774109	0	-0.00122555	0	3.91052e-06	0
310.658	0.547172	0	0.0204181	0	-0.00155553	0	-0.0407028	0	-0.0217285	0	5.47734e-05	0	-0.00741928	0	-0.00120155	0	5.79767e-06	0
310.737	0.543947	0	0.0187051	0	-0.00155121	0	-0.0412851	0	-0.0218221	0	5.52384e-05	0	-0.00738582	0	-0.00117871	0	6.00598e-06	0
310.815	0.540677	0	0.0169848	0	-0.00154684	0	-0.0418429	0	-0.0219139	0	5.58458e-05	0	-0.00679651	0	-0.00115653	0	9.43497e-06	0
310.894	0.537364	0	0.0152573	0	-0.00154242	0	-0.0423826	0	-0.022004	0	5.6559e-05	0	-0.00692474	0	-0.00113479	0	8.69263e-06	0
310.973	0.534009	0	0.0135228	0	-0.00153794	0	-0.0429106	0	-0.0220925	0	5.734e-05	0	-0.00649944	0	-0.0011147	0	1.11588e-05	0
311.051	0.530613	0	0.0117814	0	-0.00153339	0	-0.0434175	0	-0.0221794	0	5.82431e-05	0	-0.00638778	0	-0.0010948	0	1.17971e-05	0
311.13	0.527179	0	0.0100332	0	-0.00152877	0	-0.0439032	0	-0.0222648	0	5.92683e-05	0	-0.0059572	0	-0.00107669	0	1.42819e-05	0
311.209	0.523706	0	0.00827841	0	-0.00152407	0	-0.0443791	0	-0.0223488	0	6.03489e-05	0	-0.00614139	0	-0.00105895	0	1.31853e-05	0
311.287	0.520197	0	0.00651702	0	-0.00151927	0	-0.0448379	0	-0.0224314	0	6.1526e-05	0	-0.00552558	0	-0.00104173	0	1.67347e-05	0
311.366	0.516652	0	0.00474919	0	-0.00151438	0	-0.0452726	0	-0.0225128	0	6.28415e-05	0	-0.00552408	0	-0.00102488	0	1.67041e-05	0
311.445	0.513074	0	0.00297501	0	-0.00150938	0	-0.0456933	0	-0.0225928	0	6.42342e-05	0	-0.00517287	0	-0.0010098	0	1.86984e-05	0
311.523	0.509463	0	0.00119458	0	-0.00150427	0	-0.0461	0	-0.0226717	0	6.57046e-05	0	-0.00517146	0	-0.000995925	0	1.86565e-05	0
311.602	0.505822	0	-0.000592011	0	-0.00149904	0	-0.0464804	0	-0.0227495	0	6.73231e-05	0	-0.00450058	0	-0.000981655	0	2.2483e-05	0
311.681	0.502151	0	-0.00238468	0	-0.00149368	0	-0.0468423	0	-0.0228262	0	6.90442e-05	0	-0.00469897	0	-0.000968894	0	2.12663e-05	0
311.759	0.498452	0	-0.00418335	0	-0.00148818	0	-0.0471935	0	-0.022902	0	7.08213e-05	0	-0.0042302	0	-0.000956733	0	2.39076e-05	0
311.838	0.494726	0	-0.00598794	0	-0.00148253	0	-0.0475228	0	-0.0229768	0	7.27189e-05	0	-0.00414277	0	-0.00094579	0	2.43278e-05	0
311.917	0.490976	0	-0.00779839	0	-0.00147673	0	-0.0478303	0	-0.0230508	0	7.47359e-05	0	-0.00367235	0	-0.000935618	0	2.69658e-05	0
311.995	0.487201	0	-0.00961463	0	-0.00147077	0	-0.0481299	0	-0.0231241	0	7.67909e-05	0	-0.0039443	0	-0.000926873	0	2.52697e-05	0
312.074	0.483403	0	-0.0114366	0	-0.00146465	0	-0.048413	0	-0.0231966	0	7.89324e-05	0	-0.00325475	0	-0.00091757	0	2.91668e-05	0
312.153	0.479585	0	-0.0132643	0	-0.00145835	0	-0.0486711	0	-0.0232685	0	8.12103e-05	0	-0.00330682	0	-0.000909692	0	2.87342e-05	0
312.231	0.475746	0	-0.0150975	0	-0.00145187	0	-0.0489167	0	-0.0233398	0	8.35497e-05	0	-0.00293938	0	-0.000902567	0	3.07323e-05	0
312.31	0.471889	0	-0.0169364	0	-0.0014452	0	-0.04915	0	-0.0234105	0	8.59504e-05	0	-0.00299549	0	-0.000895685	0	3.02648e-05	0
