time[s]	Surge [m]	Sway [m]	Heave [m]	Roll [rad]	Pitch [rad]	Yaw [rad]	
300.038	0.388866	0	0.093901	0	-0.00199519	0
300.117	0.391079	0	0.0949374	0	-0.00200665	0
300.195	0.393334	0	0.0959539	0	-0.00201761	0
300.274	0.395631	0	0.0969491	0	-0.00202809	0
300.353	0.397968	0	0.0979269	0	-0.00203808	0
300.431	0.400342	0	0.0988829	0	-0.00204761	0
300.51	0.402753	0	0.0998173	0	-0.00205666	0
300.589	0.405199	0	0.100732	0	-0.00206527	0
300.667	0.407678	0	0.101622	0	-0.00207342	0
300.746	0.410188	0	0.102492	0	-0.00208113	0
300.825	0.412727	0	0.10334	0	-0.00208842	0
300.903	0.415294	0	0.104164	0	-0.00209528	0
300.982	0.417888	0	0.104965	0	-0.00210173	0
301.061	0.420505	0	0.105743	0	-0.00210778	0
301.139	0.423145	0	0.106497	0	-0.00211343	0
301.218	0.425806	0	0.107226	0	-0.0021187	0
301.297	0.428486	0	0.107932	0	-0.00212359	0
301.375	0.431183	0	0.108613	0	-0.00212812	0
301.454	0.433895	0	0.109269	0	-0.00213229	0
301.533	0.436622	0	0.109899	0	-0.00213613	0
301.611	0.439359	0	0.110504	0	-0.00213961	0
301.69	0.442104	0	0.111083	0	-0.00214277	0
301.769	0.444859	0	0.111637	0	-0.00214561	0
301.847	0.447619	0	0.112164	0	-0.00214814	0
301.926	0.450385	0	0.112665	0	-0.00215038	0
302.005	0.453152	0	0.11314	0	-0.00215232	0
302.083	0.455919	0	0.113588	0	-0.00215399	0
302.162	0.458686	0	0.114009	0	-0.00215538	0
302.241	0.461449	0	0.114403	0	-0.00215652	0
302.319	0.464207	0	0.11477	0	-0.00215741	0
302.398	0.466959	0	0.11511	0	-0.00215807	0
302.477	0.469701	0	0.115423	0	-0.00215849	0
302.555	0.472433	0	0.115708	0	-0.0021587	0
302.634	0.475153	0	0.115965	0	-0.00215869	0
302.713	0.477859	0	0.116195	0	-0.00215849	0
302.791	0.480549	0	0.116398	0	-0.0021581	0
302.87	0.483222	0	0.116572	0	-0.00215753	0
302.949	0.485875	0	0.116719	0	-0.00215679	0
303.027	0.488507	0	0.116837	0	-0.00215588	0
303.106	0.491117	0	0.116928	0	-0.00215483	0
303.185	0.493702	0	0.116991	0	-0.00215363	0
303.263	0.496261	0	0.117027	0	-0.0021523	0
303.342	0.498792	0	0.117034	0	-0.00215085	0
303.421	0.501294	0	0.117013	0	-0.00214928	0
303.499	0.503765	0	0.116965	0	-0.00214761	0
303.578	0.506204	0	0.116889	0	-0.00214584	0
303.657	0.508608	0	0.116785	0	-0.00214398	0
303.735	0.510977	0	0.116653	0	-0.00214204	0
303.814	0.513308	0	0.116494	0	-0.00214003	0
303.893	0.515601	0	0.116307	0	-0.00213795	0
303.971	0.517854	0	0.116092	0	-0.00213582	0
304.05	0.520065	0	0.115851	0	-0.00213364	0
304.129	0.522233	0	0.115582	0	-0.00213142	0
304.207	0.524357	0	0.115286	0	-0.00212916	0
304.286	0.526436	0	0.114963	0	-0.00212688	0
304.365	0.528467	0	0.114611	0	-0.00212458	0
304.443	0.530451	0	0.114234	0	-0.00212227	0
304.522	0.532385	0	0.113831	0	-0.00211995	0
304.601	0.534268	0	0.1134	0	-0.00211764	0
304.679	0.536099	0	0.112945	0	-0.00211533	0
304.758	0.537877	0	0.112461	0	-0.00211303	0
304.837	0.539602	0	0.111953	0	-0.00211075	0
304.915	0.541271	0	0.111418	0	-0.0021085	0
304.994	0.542884	0	0.110858	0	-0.00210627	0
305.073	0.544439	0	0.110273	0	-0.00210408	0
305.151	0.545937	0	0.109662	0	-0.00210193	0
305.23	0.547375	0	0.109026	0	-0.00209983	0
305.309	0.548753	0	0.108365	0	-0.00209777	0
305.387	0.550071	0	0.10768	0	-0.00209576	0
305.466	0.551327	0	0.106971	0	-0.00209381	0
305.545	0.55252	0	0.106237	0	-0.00209192	0
305.623	0.55365	0	0.10548	0	-0.0020901	0
305.702	0.554717	0	0.104698	0	-0.00208834	0
305.781	0.555719	0	0.103893	0	-0.00208665	0
305.859	0.556655	0	0.103066	0	-0.00208503	0
305.938	0.557527	0	0.102214	0	-0.00208348	0
306.017	0.558332	0	0.10134	0	-0.00208201	0
306.095	0.55907	0	0.100444	0	-0.00208061	0
306.174	0.559742	0	0.0995264	0	-0.0020793	0
306.253	0.560346	0	0.0985866	0	-0.00207807	0
306.331	0.560882	0	0.0976252	0	-0.00207691	0
306.41	0.56135	0	0.0966425	0	-0.00207584	0
306.489	0.561749	0	0.0956388	0	-0.00207485	0
306.567	0.56208	0	0.0946143	0	-0.00207395	0
306.646	0.562342	0	0.09357	0	-0.00207312	0
306.725	0.562535	0	0.0925049	0	-0.00207238	0
306.803	0.562658	0	0.0914199	0	-0.00207172	0
306.882	0.562713	0	0.0903163	0	-0.00207114	0
306.961	0.562698	0	0.0891924	0	-0.00207064	0
307.039	0.562615	0	0.0880494	0	-0.00207022	0
307.118	0.562461	0	0.0868878	0	-0.00206988	0
307.197	0.562239	0	0.0857077	0	-0.00206961	0
307.275	0.561948	0	0.0845095	0	-0.00206941	0
307.354	0.561588	0	0.0832934	0	-0.00206929	0
307.433	0.56116	0	0.0820598	0	-0.00206923	0
307.511	0.560663	0	0.0808089	0	-0.00206923	0
307.59	0.560098	0	0.079541	0	-0.0020693	0
307.669	0.559465	0	0.0782565	0	-0.00206943	0
307.747	0.558765	0	0.0769556	0	-0.00206961	0
307.826	0.557999	0	0.0756385	0	-0.00206984	0
307.905	0.557165	0	0.0743057	0	-0.00207013	0
307.983	0.556266	0	0.0729574	0	-0.00207045	0
308.062	0.555301	0	0.0715938	0	-0.00207081	0
308.141	0.554271	0	0.0702153	0	-0.00207121	0
308.219	0.553177	0	0.0688212	0	-0.00207164	0
308.298	0.552019	0	0.0674137	0	-0.00207209	0
308.377	0.550797	0	0.0659921	0	-0.00207256	0
308.455	0.549514	0	0.0645566	0	-0.00207305	0
308.534	0.548168	0	0.0631071	0	-0.00207354	0
308.613	0.546762	0	0.0616448	0	-0.00207404	0
308.691	0.545295	0	0.0601695	0	-0.00207454	0
308.77	0.543769	0	0.0586815	0	-0.00207502	0
308.849	0.542185	0	0.057181	0	-0.00207549	0
308.927	0.540542	0	0.0556683	0	-0.00207594	0
309.006	0.538843	0	0.0541436	0	-0.00207636	0
309.085	0.537088	0	0.0526072	0	-0.00207675	0
309.163	0.535278	0	0.0510594	0	-0.00207709	0
309.242	0.533414	0	0.0495003	0	-0.00207739	0
309.321	0.531497	0	0.0479302	0	-0.00207763	0
309.399	0.529528	0	0.0463494	0	-0.00207781	0
309.478	0.527508	0	0.0447581	0	-0.00207792	0
309.557	0.525438	0	0.0431565	0	-0.00207795	0
309.635	0.523319	0	0.0415448	0	-0.0020779	0
309.714	0.521152	0	0.0399233	0	-0.00207775	0
309.793	0.518939	0	0.0382921	0	-0.00207751	0
309.871	0.516681	0	0.0366516	0	-0.00207716	0
309.95	0.514378	0	0.0350018	0	-0.00207669	0
310.029	0.512032	0	0.033343	0	-0.00207611	0
310.107	0.509644	0	0.0316753	0	-0.00207539	0
310.186	0.507215	0	0.029999	0	-0.00207454	0
310.265	0.504746	0	0.0283143	0	-0.00207354	0
310.343	0.50224	0	0.0266218	0	-0.00207238	0
310.422	0.499696	0	0.0249217	0	-0.00207107	0
310.501	0.497116	0	0.0232126	0	-0.00206959	0
310.579	0.494502	0	0.0214958	0	-0.00206792	0
310.658	0.491854	0	0.0197713	0	-0.00206608	0
310.737	0.489174	0	0.0180394	0	-0.00206404	0
310.815	0.486464	0	0.0163001	0	-0.0020618	0
310.894	0.483724	0	0.0145537	0	-0.00205935	0
310.973	0.480955	0	0.0127991	0	-0.00205669	0
311.051	0.47816	0	0.0110387	0	-0.0020538	0
311.13	0.475339	0	0.00927152	0	-0.00205068	0
311.209	0.472494	0	0.00749829	0	-0.00204732	0
311.287	0.469626	0	0.0057179	0	-0.00204371	0
311.366	0.466736	0	0.00393108	0	-0.00203985	0
311.445	0.463825	0	0.00213673	0	-0.00203573	0
311.523	0.460896	0	0.000337328	0	-0.00203134	0
311.602	0.457948	0	-0.00146821	0	-0.00202667	0
311.681	0.454983	0	-0.00327825	0	-0.00202172	0
311.759	0.452004	0	-0.00509582	0	-0.00201648	0
311.838	0.44901	0	-0.00691929	0	-0.00201094	0
311.917	0.446003	0	-0.00874858	0	-0.0020051	0
311.995	0.442984	0	-0.0105836	0	-0.00199895	0
312.074	0.439955	0	-0.012425	0	-0.00199249	0
312.153	0.436917	0	-0.0142713	0	-0.0019857	0
312.231	0.43387	0	-0.0161245	0	-0.00197858	0
312.31	0.430817	0	-0.017981	0	-0.00197113	0
312.389	0.427759	0	-0.0198434	0	-0.00196334	0
312.467	0.424695	0	-0.0217118	0	-0.0019552	0
312.546	0.421629	0	-0.0235856	0	-0.00194671	0
312.625	0.41856	0	-0.0254643	0	-0.00193786	0
312.703	0.41549	0	-0.0273506	0	-0.00192865	0
312.782	0.41242	0	-0.0292396	0	-0.00191908	0
312.861	0.409351	0	-0.0311348	0	-0.00190914	0
312.939	0.406285	0	-0.0330353	0	-0.00189882	0
313.018	0.403221	0	-0.0349411	0	-0.00188812	0
313.097	0.400162	0	-0.0368513	0	-0.00187704	0
313.175	0.397107	0	-0.0387689	0	-0.00186557	0
313.254	0.394059	0	-0.0406905	0	-0.00185371	0
313.333	0.391018	0	-0.0426174	0	-0.00184147	0
313.411	0.387984	0	-0.0445491	0	-0.00182882	0
313.49	0.38496	0	-0.0464862	0	-0.00181578	0
313.569	0.381945	0	-0.0484302	0	-0.00180234	0
313.647	0.378941	0	-0.0503783	0	-0.00178849	0
313.726	0.375948	0	-0.0523324	0	-0.00177424	0
313.805	0.37297	0	-0.0542896	0	-0.00175958	0
313.883	0.370003	0	-0.0562538	0	-0.00174451	0
313.962	0.36705	0	-0.0582245	0	-0.00172903	0
314.041	0.364111	0	-0.0601991	0	-0.00171314	0
314.119	0.361187	0	-0.0621789	0	-0.00169684	0
314.198	0.358279	0	-0.0641647	0	-0.00168013	0
314.277	0.355385	0	-0.0661563	0	-0.00166302	0
314.355	0.352509	0	-0.0681525	0	-0.0016455	0
314.434	0.349649	0	-0.0701555	0	-0.00162757	0
314.513	0.346806	0	-0.0721634	0	-0.00160924	0
314.591	0.343982	0	-0.0741772	0	-0.00159049	0
314.67	0.341176	0	-0.0761964	0	-0.00157135	0
314.749	0.338388	0	-0.0782206	0	-0.0015518	0
314.827	0.33562	0	-0.0802508	0	-0.00153185	0
314.906	0.332872	0	-0.0822882	0	-0.0015115	0
314.985	0.330144	0	-0.0843308	0	-0.00149075	0
315.063	0.327437	0	-0.086377	0	-0.00146961	0
315.142	0.324749	0	-0.0884305	0	-0.00144807	0
315.221	0.322083	0	-0.0904905	0	-0.00142615	0
315.299	0.319438	0	-0.0925559	0	-0.00140384	0
315.378	0.316814	0	-0.0946264	0	-0.00138115	0
315.457	0.314211	0	-0.0967046	0	-0.00135808	0
315.535	0.31163	0	-0.0987865	0	-0.00133464	0
315.614	0.30907	0	-0.100875	0	-0.00131083	0
315.693	0.306532	0	-0.10297	0	-0.00128666	0
315.771	0.304015	0	-0.105071	0	-0.00126213	0
315.85	0.301519	0	-0.107178	0	-0.00123726	0
315.929	0.299045	0	-0.10929	0	-0.00121203	0
316.007	0.296592	0	-0.111408	0	-0.00118647	0
316.086	0.294161	0	-0.113533	0	-0.00116057	0
316.165	0.29175	0	-0.115664	0	-0.00113435	0
316.243	0.289361	0	-0.1178	0	-0.0011078	0
316.322	0.286992	0	-0.119942	0	-0.00108095	0
316.401	0.284643	0	-0.122091	0	-0.00105379	0
316.479	0.282315	0	-0.124246	0	-0.00102633	0
316.558	0.280005	0	-0.126404	0	-0.000998593	0
316.637	0.277715	0	-0.12857	0	-0.00097057	0
316.715	0.275443	0	-0.130743	0	-0.000942282	0
316.794	0.273188	0	-0.13292	0	-0.00091374	0
316.873	0.27095	0	-0.135103	0	-0.000884952	0
316.951	0.268728	0	-0.137291	0	-0.000855926	0
317.03	0.266522	0	-0.139486	0	-0.000826675	0
317.109	0.264331	0	-0.141685	0	-0.000797208	0
317.188	0.262155	0	-0.143892	0	-0.000767534	0
317.266	0.259992	0	-0.146102	0	-0.000737666	0
317.345	0.257843	0	-0.148318	0	-0.00070761	0
317.424	0.255705	0	-0.150538	0	-0.00067739	0
317.502	0.25358	0	-0.152764	0	-0.000646995	0
317.581	0.251465	0	-0.154997	0	-0.000616456	0
317.66	0.249362	0	-0.157234	0	-0.000585769	0
317.738	0.247266	0	-0.159475	0	-0.000554963	0
317.817	0.24518	0	-0.16172	0	-0.000524031	0
317.896	0.243101	0	-0.16397	0	-0.000493003	0
317.974	0.241029	0	-0.166225	0	-0.000461876	0
318.053	0.238961	0	-0.168483	0	-0.000430679	0
318.132	0.236899	0	-0.170748	0	-0.000399409	0
318.21	0.23484	0	-0.173015	0	-0.000368093	0
318.289	0.232784	0	-0.175285	0	-0.000336729	0
318.368	0.230729	0	-0.177559	0	-0.000305347	0
318.446	0.228675	0	-0.179837	0	-0.000273947	0
318.525	0.226619	0	-0.182118	0	-0.000242553	0
318.604	0.224563	0	-0.184401	0	-0.000211167	0
318.682	0.222503	0	-0.186688	0	-0.000179817	0
318.761	0.220438	0	-0.188978	0	-0.000148507	0
318.84	0.218368	0	-0.191269	0	-0.000117253	0
318.918	0.216292	0	-0.193563	0	-8.60729e-05	0
318.997	0.214207	0	-0.195859	0	-5.49802e-05	0
319.076	0.212113	0	-0.198156	0	-2.3988e-05	0
319.154	0.210009	0	-0.200455	0	6.88966e-06	0
319.233	0.207893	0	-0.202754	0	3.76375e-05	0
319.312	0.205764	0	-0.205055	0	6.82412e-05	0
319.39	0.203621	0	-0.207356	0	9.8687e-05	0
319.469	0.201463	0	-0.209657	0	0.00012896	0
319.548	0.199288	0	-0.211959	0	0.000159047	0
319.626	0.197095	0	-0.214259	0	0.000188932	0
319.705	0.194882	0	-0.216559	0	0.000218601	0
319.784	0.192649	0	-0.218858	0	0.00024804	0
319.862	0.190395	0	-0.221156	0	0.000277234	0
319.941	0.188117	0	-0.223452	0	0.00030617	0
320.02	0.185815	0	-0.225746	0	0.000334832	0
320.098	0.183487	0	-0.228038	0	0.000363207	0
320.177	0.181133	0	-0.230326	0	0.00039128	0
320.256	0.17875	0	-0.232611	0	0.000419038	0
320.334	0.176337	0	-0.234892	0	0.000446466	0
320.413	0.173894	0	-0.237169	0	0.00047355	0
320.492	0.171419	0	-0.239442	0	0.000500277	0
320.57	0.16891	0	-0.24171	0	0.000526632	0
320.649	0.166367	0	-0.243974	0	0.000552603	0
320.728	0.163787	0	-0.246232	0	0.000578175	0
320.806	0.161171	0	-0.248482	0	0.000603335	0
320.885	0.158516	0	-0.250727	0	0.00062807	0
320.964	0.155822	0	-0.252963	0	0.000652367	0
321.042	0.153087	0	-0.255193	0	0.000676213	0
321.121	0.150311	0	-0.257415	0	0.000699595	0
321.2	0.147491	0	-0.259629	0	0.0007225	0
321.278	0.144627	0	-0.261833	0	0.000744918	0
321.357	0.141717	0	-0.264028	0	0.000766834	0
321.436	0.138761	0	-0.266212	0	0.000788237	0
321.514	0.135757	0	-0.268386	0	0.000809116	0
321.593	0.132705	0	-0.270549	0	0.000829458	0
321.672	0.129602	0	-0.2727	0	0.000849253	0
321.75	0.126449	0	-0.27484	0	0.00086849	0
321.829	0.123244	0	-0.276967	0	0.000887157	0
321.908	0.119987	0	-0.279081	0	0.000905244	0
321.986	0.116675	0	-0.281181	0	0.00092274	0
322.065	0.113309	0	-0.283268	0	0.000939637	0
322.144	0.109887	0	-0.285337	0	0.000955923	0
322.222	0.106408	0	-0.287393	0	0.000971589	0
322.301	0.102872	0	-0.289432	0	0.000986627	0
322.38	0.0992783	0	-0.291455	0	0.00100103	0
322.458	0.0956251	0	-0.293461	0	0.00101478	0
322.537	0.091912	0	-0.29545	0	0.00102788	0
322.616	0.0881384	0	-0.297419	0	0.00104032	0
322.694	0.0843036	0	-0.29937	0	0.00105208	0
322.773	0.0804068	0	-0.301301	0	0.00106317	0
322.852	0.0764474	0	-0.303211	0	0.00107357	0
322.93	0.0724249	0	-0.305102	0	0.00108328	0
323.009	0.0683387	0	-0.306971	0	0.0010923	0
323.088	0.0641882	0	-0.308818	0	0.00110061	0
323.166	0.059973	0	-0.310643	0	0.00110821	0
323.245	0.0556926	0	-0.312444	0	0.0011151	0
323.324	0.0513466	0	-0.314222	0	0.00112126	0
323.402	0.0469346	0	-0.315975	0	0.00112671	0
323.481	0.0424563	0	-0.317704	0	0.00113142	0
323.56	0.0379113	0	-0.319406	0	0.00113541	0
323.638	0.0332995	0	-0.321082	0	0.00113866	0
323.717	0.0286206	0	-0.322732	0	0.00114117	0
323.796	0.0238744	0	-0.324353	0	0.00114294	0
323.874	0.0190609	0	-0.325947	0	0.00114396	0
323.953	0.0141798	0	-0.327512	0	0.00114425	0
324.032	0.00923125	0	-0.329047	0	0.00114378	0
324.11	0.00421516	0	-0.330553	0	0.00114257	0
324.189	-0.000868418	0	-0.332028	0	0.00114061	0
324.268	-0.0060194	0	-0.333471	0	0.00113791	0
324.346	-0.0112376	0	-0.334883	0	0.00113445	0
324.425	-0.016523	0	-0.336262	0	0.00113025	0
324.504	-0.0218752	0	-0.337608	0	0.0011253	0
324.582	-0.027294	0	-0.33892	0	0.00111961	0
324.661	-0.0327792	0	-0.340199	0	0.00111317	0
324.74	-0.0383302	0	-0.341442	0	0.001106	0
324.818	-0.0439469	0	-0.34265	0	0.00109808	0
324.897	-0.0496286	0	-0.343821	0	0.00108943	0
324.976	-0.0553749	0	-0.344956	0	0.00108005	0
325.054	-0.0611853	0	-0.346054	0	0.00106994	0
325.133	-0.0670592	0	-0.347114	0	0.00105911	0
325.212	-0.0729959	0	-0.348136	0	0.00104756	0
325.29	-0.0789948	0	-0.349119	0	0.00103529	0
325.369	-0.0850552	0	-0.350061	0	0.00102232	0
325.448	-0.0911763	0	-0.350964	0	0.00100865	0
325.526	-0.0973573	0	-0.351826	0	0.000994276	0
325.605	-0.103597	0	-0.352647	0	0.000979216	0
325.684	-0.109895	0	-0.353426	0	0.000963475	0
325.762	-0.116251	0	-0.354163	0	0.000947059	0
325.841	-0.122662	0	-0.354859	0	0.000929977	0
325.92	-0.129129	0	-0.355509	0	0.000912237	0
325.998	-0.13565	0	-0.356116	0	0.000893847	0
326.077	-0.142223	0	-0.356679	0	0.000874817	0
326.156	-0.148849	0	-0.357197	0	0.000855156	0
326.234	-0.155525	0	-0.357671	0	0.000834874	0
326.313	-0.16225	0	-0.358097	0	0.000813981	0
326.392	-0.169024	0	-0.358479	0	0.000792487	0
326.47	-0.175844	0	-0.358815	0	0.000770404	0
326.549	-0.182709	0	-0.359103	0	0.000747742	0
326.628	-0.189619	0	-0.359343	0	0.000724514	0
326.706	-0.196571	0	-0.359535	0	0.000700732	0
326.785	-0.203564	0	-0.359679	0	0.000676406	0
326.864	-0.210596	0	-0.359774	0	0.000651551	0
326.942	-0.217667	0	-0.359822	0	0.000626179	0
327.021	-0.224773	0	-0.359819	0	0.000600302	0
327.1	-0.231915	0	-0.359768	0	0.000573936	0
327.178	-0.239089	0	-0.359666	0	0.000547093	0
327.257	-0.246295	0	-0.359512	0	0.000519788	0
327.336	-0.25353	0	-0.359309	0	0.000492035	0
327.414	-0.260794	0	-0.359055	0	0.000463846	0
327.493	-0.268083	0	-0.35875	0	0.000435246	0
327.572	-0.275397	0	-0.358395	0	0.000406233	0
327.65	-0.282735	0	-0.357987	0	0.000376825	0
327.729	-0.290092	0	-0.357527	0	0.00034705	0
327.808	-0.297468	0	-0.357015	0	0.000316919	0
327.886	-0.304861	0	-0.356449	0	0.000286444	0
327.965	-0.312268	0	-0.355832	0	0.000255645	0
328.044	-0.319688	0	-0.355162	0	0.000224538	0
328.122	-0.327119	0	-0.35444	0	0.000193137	0
328.201	-0.334559	0	-0.353664	0	0.000161462	0
328.28	-0.342005	0	-0.352836	0	0.000129531	0
328.358	-0.349456	0	-0.351954	0	9.73607e-05	0
328.437	-0.356909	0	-0.351019	0	6.4969e-05	0
328.516	-0.364362	0	-0.350031	0	3.2373e-05	0
328.594	-0.371813	0	-0.348989	0	-4.07612e-07	0
328.673	-0.37926	0	-0.347894	0	-3.33559e-05	0
328.752	-0.386701	0	-0.346745	0	-6.64531e-05	0
328.83	-0.394133	0	-0.345543	0	-9.96807e-05	0
328.909	-0.401554	0	-0.344287	0	-0.000133021	0
328.988	-0.408962	0	-0.342978	0	-0.000166455	0
329.066	-0.416355	0	-0.341616	0	-0.000199965	0
329.145	-0.423731	0	-0.3402	0	-0.000233532	0
329.224	-0.431086	0	-0.338731	0	-0.000267137	0
329.302	-0.43842	0	-0.337209	0	-0.000300763	0
329.381	-0.44573	0	-0.335635	0	-0.000334389	0
329.46	-0.453013	0	-0.334007	0	-0.000367998	0
329.538	-0.460268	0	-0.332327	0	-0.00040157	0
329.617	-0.467491	0	-0.330592	0	-0.000435088	0
329.696	-0.474682	0	-0.328808	0	-0.000468532	0
329.774	-0.481836	0	-0.32697	0	-0.000501883	0
329.853	-0.488954	0	-0.325082	0	-0.000535123	0
329.932	-0.496031	0	-0.323142	0	-0.000568234	0
330.01	-0.503065	0	-0.321149	0	-0.000601196	0
330.089	-0.510056	0	-0.319107	0	-0.000633991	0
330.168	-0.516999	0	-0.317012	0	-0.000666601	0
330.246	-0.523894	0	-0.314869	0	-0.000699007	0
330.325	-0.530737	0	-0.312674	0	-0.000731192	0
330.404	-0.537527	0	-0.310431	0	-0.000763136	0
330.482	-0.544262	0	-0.308137	0	-0.000794822	0
330.561	-0.550939	0	-0.305795	0	-0.000826234	0
330.64	-0.557556	0	-0.303405	0	-0.000857352	0
330.718	-0.56411	0	-0.300966	0	-0.000888157	0
330.797	-0.570601	0	-0.29848	0	-0.000918634	0
330.876	-0.577025	0	-0.295947	0	-0.000948765	0
330.954	-0.583381	0	-0.293367	0	-0.000978532	0
331.033	-0.589666	0	-0.290741	0	-0.00100792	0
331.112	-0.595879	0	-0.28807	0	-0.00103691	0
331.19	-0.602017	0	-0.285353	0	-0.00106549	0
331.269	-0.608079	0	-0.282592	0	-0.00109363	0
331.348	-0.614062	0	-0.279788	0	-0.00112133	0
331.426	-0.619965	0	-0.27694	0	-0.00114857	0
331.505	-0.625786	0	-0.274048	0	-0.00117533	0
331.584	-0.631522	0	-0.271116	0	-0.00120161	0
331.662	-0.637174	0	-0.268143	0	-0.00122737	0
331.741	-0.642738	0	-0.265127	0	-0.00125262	0
331.82	-0.648212	0	-0.262072	0	-0.00127734	0
331.898	-0.653596	0	-0.258977	0	-0.00130151	0
331.977	-0.658887	0	-0.255844	0	-0.00132511	0
332.056	-0.664084	0	-0.252674	0	-0.00134814	0
332.134	-0.669185	0	-0.249465	0	-0.00137059	0
332.213	-0.674189	0	-0.246221	0	-0.00139243	0
332.292	-0.679094	0	-0.242941	0	-0.00141366	0
332.37	-0.683898	0	-0.239626	0	-0.00143426	0
332.449	-0.6886	0	-0.236277	0	-0.00145422	0
332.528	-0.693199	0	-0.232895	0	-0.00147354	0
332.606	-0.697693	0	-0.22948	0	-0.0014922	0
332.685	-0.702082	0	-0.226035	0	-0.00151019	0
332.764	-0.706363	0	-0.222557	0	-0.00152749	0
332.842	-0.710535	0	-0.219051	0	-0.00154411	0
332.921	-0.714598	0	-0.215516	0	-0.00156003	0
333	-0.718549	0	-0.211953	0	-0.00157524	0
333.078	-0.722389	0	-0.208362	0	-0.00158973	0
333.157	-0.726116	0	-0.204744	0	-0.0016035	0
333.236	-0.729729	0	-0.201103	0	-0.00161654	0
333.314	-0.733227	0	-0.197437	0	-0.00162883	0
333.393	-0.73661	0	-0.193747	0	-0.00164038	0
333.472	-0.739876	0	-0.190035	0	-0.00165118	0
333.55	-0.743025	0	-0.186302	0	-0.00166122	0
333.629	-0.746056	0	-0.182549	0	-0.00167049	0
333.708	-0.748969	0	-0.178775	0	-0.001679	0
333.786	-0.751763	0	-0.174983	0	-0.00168673	0
333.865	-0.754437	0	-0.171174	0	-0.00169369	0
333.944	-0.756991	0	-0.167349	0	-0.00169986	0
334.022	-0.759424	0	-0.163508	0	-0.00170525	0
334.101	-0.761737	0	-0.159654	0	-0.00170985	0
334.18	-0.763928	0	-0.155786	0	-0.00171367	0
334.258	-0.765997	0	-0.151904	0	-0.00171669	0
334.337	-0.767945	0	-0.148013	0	-0.00171892	0
334.416	-0.769771	0	-0.144113	0	-0.00172035	0
334.494	-0.771475	0	-0.140202	0	-0.00172099	0
334.573	-0.773057	0	-0.136284	0	-0.00172084	0
334.652	-0.774517	0	-0.132358	0	-0.0017199	0
334.73	-0.775855	0	-0.128426	0	-0.00171816	0
