time[s]	Surge [m]	Sway [m]	Heave [m]	Roll [rad]	Pitch [rad]	Yaw [rad]	
300.038	0.4242	0	0.0937059	0	-0.00257195	0
300.117	0.426548	0	0.0947259	0	-0.00257853	0
300.195	0.428954	0	0.095727	0	-0.00258443	0
300.274	0.431414	0	0.0967087	0	-0.00258964	0
300.353	0.433927	0	0.0976707	0	-0.00259417	0
300.431	0.43649	0	0.0986125	0	-0.00259805	0
300.51	0.439103	0	0.0995337	0	-0.00260128	0
300.589	0.441762	0	0.100434	0	-0.00260387	0
300.667	0.444466	0	0.101313	0	-0.00260583	0
300.746	0.447213	0	0.10217	0	-0.00260717	0
300.825	0.450002	0	0.103005	0	-0.00260791	0
300.903	0.452829	0	0.103818	0	-0.00260805	0
300.982	0.455693	0	0.104608	0	-0.00260761	0
301.061	0.458592	0	0.105375	0	-0.00260661	0
301.139	0.461524	0	0.106118	0	-0.00260504	0
301.218	0.464486	0	0.106838	0	-0.00260293	0
301.297	0.467476	0	0.107534	0	-0.0026003	0
301.375	0.470493	0	0.108205	0	-0.00259714	0
301.454	0.473534	0	0.108852	0	-0.00259348	0
301.533	0.476596	0	0.109475	0	-0.00258933	0
301.611	0.479679	0	0.110072	0	-0.00258469	0
301.69	0.482779	0	0.110644	0	-0.00257959	0
301.769	0.485894	0	0.11119	0	-0.00257404	0
301.847	0.489023	0	0.111711	0	-0.00256805	0
301.926	0.492163	0	0.112206	0	-0.00256163	0
302.005	0.495312	0	0.112675	0	-0.0025548	0
302.083	0.498467	0	0.113117	0	-0.00254758	0
302.162	0.501627	0	0.113534	0	-0.00253997	0
302.241	0.504789	0	0.113923	0	-0.00253199	0
302.319	0.507951	0	0.114286	0	-0.00252365	0
302.398	0.511111	0	0.114622	0	-0.00251497	0
302.477	0.514267	0	0.114931	0	-0.00250596	0
302.555	0.517417	0	0.115213	0	-0.00249663	0
302.634	0.520558	0	0.115468	0	-0.002487	0
302.713	0.523689	0	0.115696	0	-0.00247708	0
302.791	0.526806	0	0.115896	0	-0.00246689	0
302.87	0.529909	0	0.116069	0	-0.00245644	0
302.949	0.532996	0	0.116215	0	-0.00244573	0
303.027	0.536063	0	0.116333	0	-0.00243479	0
303.106	0.539109	0	0.116423	0	-0.00242363	0
303.185	0.542132	0	0.116487	0	-0.00241226	0
303.263	0.54513	0	0.116522	0	-0.0024007	0
303.342	0.5481	0	0.11653	0	-0.00238896	0
303.421	0.551042	0	0.116511	0	-0.00237704	0
303.499	0.553952	0	0.116464	0	-0.00236497	0
303.578	0.556829	0	0.116389	0	-0.00235276	0
303.657	0.559672	0	0.116287	0	-0.00234042	0
303.735	0.562477	0	0.116158	0	-0.00232795	0
303.814	0.565245	0	0.116001	0	-0.00231538	0
303.893	0.567971	0	0.115818	0	-0.00230271	0
303.971	0.570656	0	0.115607	0	-0.00228996	0
304.05	0.573296	0	0.115369	0	-0.00227714	0
304.129	0.575891	0	0.115104	0	-0.00226425	0
304.207	0.578438	0	0.114812	0	-0.00225132	0
304.286	0.580936	0	0.114493	0	-0.00223835	0
304.365	0.583384	0	0.114148	0	-0.00222536	0
304.443	0.585779	0	0.113776	0	-0.00221234	0
304.522	0.58812	0	0.113378	0	-0.00219933	0
304.601	0.590406	0	0.112954	0	-0.00218631	0
304.679	0.592635	0	0.112504	0	-0.00217331	0
304.758	0.594805	0	0.112027	0	-0.00216033	0
304.837	0.596916	0	0.111526	0	-0.00214739	0
304.915	0.598965	0	0.110998	0	-0.00213448	0
304.994	0.600952	0	0.110445	0	-0.00212163	0
305.073	0.602876	0	0.109868	0	-0.00210884	0
305.151	0.604734	0	0.109265	0	-0.00209611	0
305.23	0.606526	0	0.108637	0	-0.00208346	0
305.309	0.608251	0	0.107985	0	-0.0020709	0
305.387	0.609907	0	0.107308	0	-0.00205842	0
305.466	0.611494	0	0.106608	0	-0.00204605	0
305.545	0.61301	0	0.105883	0	-0.00203378	0
305.623	0.614455	0	0.105135	0	-0.00202162	0
305.702	0.615827	0	0.104364	0	-0.00200958	0
305.781	0.617125	0	0.103569	0	-0.00199766	0
305.859	0.61835	0	0.102751	0	-0.00198588	0
305.938	0.619499	0	0.101911	0	-0.00197423	0
306.017	0.620572	0	0.101048	0	-0.00196272	0
306.095	0.621569	0	0.100164	0	-0.00195136	0
306.174	0.622488	0	0.0992569	0	-0.00194014	0
306.253	0.62333	0	0.0983285	0	-0.00192908	0
306.331	0.624093	0	0.0973788	0	-0.00191818	0
306.41	0.624777	0	0.0964081	0	-0.00190745	0
306.489	0.625382	0	0.0954165	0	-0.00189687	0
306.567	0.625906	0	0.0944044	0	-0.00188647	0
306.646	0.626351	0	0.0933721	0	-0.00187624	0
306.725	0.626715	0	0.0923198	0	-0.00186618	0
306.803	0.626998	0	0.0912478	0	-0.0018563	0
306.882	0.627199	0	0.0901564	0	-0.00184659	0
306.961	0.62732	0	0.0890459	0	-0.00183707	0
307.039	0.627358	0	0.0879166	0	-0.00182772	0
307.118	0.627316	0	0.0867688	0	-0.00181855	0
307.197	0.627191	0	0.0856027	0	-0.00180957	0
307.275	0.626985	0	0.0844187	0	-0.00180077	0
307.354	0.626696	0	0.083217	0	-0.00179215	0
307.433	0.626327	0	0.0819979	0	-0.00178371	0
307.511	0.625875	0	0.0807617	0	-0.00177546	0
307.59	0.625343	0	0.0795088	0	-0.00176738	0
307.669	0.624728	0	0.0782393	0	-0.00175949	0
307.747	0.624034	0	0.0769536	0	-0.00175177	0
307.826	0.623258	0	0.075652	0	-0.00174422	0
307.905	0.622402	0	0.0743348	0	-0.00173685	0
307.983	0.621467	0	0.0730022	0	-0.00172965	0
308.062	0.620452	0	0.0716545	0	-0.00172262	0
308.141	0.619357	0	0.070292	0	-0.00171576	0
308.219	0.618184	0	0.068915	0	-0.00170906	0
308.298	0.616933	0	0.0675238	0	-0.00170252	0
308.377	0.615604	0	0.0661187	0	-0.00169614	0
308.455	0.614199	0	0.0646998	0	-0.00168991	0
308.534	0.612717	0	0.0632675	0	-0.00168383	0
308.613	0.61116	0	0.0618221	0	-0.00167789	0
308.691	0.609528	0	0.0603638	0	-0.00167209	0
308.77	0.607822	0	0.0588929	0	-0.00166643	0
308.849	0.606043	0	0.0574097	0	-0.00166089	0
308.927	0.604191	0	0.0559143	0	-0.00165548	0
309.006	0.602268	0	0.0544071	0	-0.00165019	0
309.085	0.600274	0	0.0528882	0	-0.00164502	0
309.163	0.59821	0	0.051358	0	-0.00163995	0
309.242	0.596077	0	0.0498167	0	-0.00163499	0
309.321	0.593877	0	0.0482645	0	-0.00163012	0
309.399	0.591609	0	0.0467016	0	-0.00162535	0
309.478	0.589276	0	0.0451283	0	-0.00162065	0
309.557	0.586879	0	0.0435448	0	-0.00161604	0
309.635	0.584418	0	0.0419513	0	-0.00161149	0
309.714	0.581894	0	0.040348	0	-0.00160701	0
309.793	0.579309	0	0.0387352	0	-0.00160258	0
309.871	0.576664	0	0.037113	0	-0.00159821	0
309.95	0.573959	0	0.0354817	0	-0.00159387	0
310.029	0.571197	0	0.0338414	0	-0.00158958	0
310.107	0.568379	0	0.0321923	0	-0.0015853	0
310.186	0.565505	0	0.0305346	0	-0.00158105	0
310.265	0.562577	0	0.0288686	0	-0.00157681	0
310.343	0.559596	0	0.0271943	0	-0.00157258	0
310.422	0.556564	0	0.0255119	0	-0.00156834	0
310.501	0.553482	0	0.0238217	0	-0.00156409	0
310.579	0.550351	0	0.0221237	0	-0.00155983	0
310.658	0.547172	0	0.0204181	0	-0.00155553	0
310.737	0.543947	0	0.0187051	0	-0.00155121	0
310.815	0.540677	0	0.0169848	0	-0.00154684	0
310.894	0.537364	0	0.0152573	0	-0.00154242	0
310.973	0.534009	0	0.0135228	0	-0.00153794	0
311.051	0.530613	0	0.0117814	0	-0.00153339	0
311.13	0.527179	0	0.0100332	0	-0.00152877	0
311.209	0.523706	0	0.00827841	0	-0.00152407	0
311.287	0.520197	0	0.00651702	0	-0.00151927	0
311.366	0.516652	0	0.00474919	0	-0.00151438	0
311.445	0.513074	0	0.00297501	0	-0.00150938	0
311.523	0.509463	0	0.00119458	0	-0.00150427	0
311.602	0.505822	0	-0.000592011	0	-0.00149904	0
311.681	0.502151	0	-0.00238468	0	-0.00149368	0
311.759	0.498452	0	-0.00418335	0	-0.00148818	0
311.838	0.494726	0	-0.00598794	0	-0.00148253	0
311.917	0.490976	0	-0.00779839	0	-0.00147673	0
311.995	0.487201	0	-0.00961463	0	-0.00147077	0
312.074	0.483403	0	-0.0114366	0	-0.00146465	0
312.153	0.479585	0	-0.0132643	0	-0.00145835	0
312.231	0.475746	0	-0.0150975	0	-0.00145187	0
312.31	0.471889	0	-0.0169364	0	-0.0014452	0
312.389	0.468014	0	-0.0187808	0	-0.00143834	0
312.467	0.464124	0	-0.0206307	0	-0.00143128	0
312.546	0.460219	0	-0.0224862	0	-0.00142401	0
312.625	0.456301	0	-0.024347	0	-0.00141652	0
312.703	0.452371	0	-0.0262133	0	-0.00140881	0
312.782	0.448431	0	-0.028085	0	-0.00140087	0
312.861	0.44448	0	-0.0299622	0	-0.0013927	0
312.939	0.440522	0	-0.0318447	0	-0.00138429	0
313.018	0.436556	0	-0.0337326	0	-0.00137564	0
313.097	0.432584	0	-0.0356259	0	-0.00136674	0
313.175	0.428607	0	-0.0375245	0	-0.00135759	0
313.254	0.424627	0	-0.0394286	0	-0.00134818	0
313.333	0.420644	0	-0.041338	0	-0.0013385	0
313.411	0.41666	0	-0.0432528	0	-0.00132856	0
313.49	0.412676	0	-0.045173	0	-0.00131834	0
313.569	0.408692	0	-0.0470987	0	-0.00130784	0
313.647	0.40471	0	-0.0490298	0	-0.00129707	0
313.726	0.400731	0	-0.0509663	0	-0.00128601	0
313.805	0.396756	0	-0.0529084	0	-0.00127466	0
313.883	0.392785	0	-0.0548559	0	-0.00126302	0
313.962	0.38882	0	-0.056809	0	-0.00125109	0
314.041	0.384861	0	-0.0587677	0	-0.00123886	0
314.119	0.380909	0	-0.0607319	0	-0.00122634	0
314.198	0.376966	0	-0.0627018	0	-0.00121351	0
314.277	0.373031	0	-0.0646773	0	-0.00120039	0
314.355	0.369105	0	-0.0666585	0	-0.00118696	0
314.434	0.36519	0	-0.0686454	0	-0.00117322	0
314.513	0.361286	0	-0.0706381	0	-0.00115918	0
314.591	0.357394	0	-0.0726365	0	-0.00114483	0
314.67	0.353514	0	-0.0746408	0	-0.00113018	0
314.749	0.349647	0	-0.0766509	0	-0.00111522	0
314.827	0.345795	0	-0.0786669	0	-0.00109994	0
314.906	0.341955	0	-0.0806889	0	-0.00108437	0
314.985	0.33813	0	-0.0827167	0	-0.00106849	0
315.063	0.33432	0	-0.0847506	0	-0.0010523	0
315.142	0.330524	0	-0.0867905	0	-0.00103581	0
315.221	0.326745	0	-0.0888364	0	-0.00101902	0
315.299	0.322981	0	-0.0908884	0	-0.00100193	0
315.378	0.319234	0	-0.0929465	0	-0.000984549	0
315.457	0.315504	0	-0.0950108	0	-0.000966865	0
315.535	0.31179	0	-0.0970811	0	-0.00094889	0
315.614	0.308093	0	-0.0991577	0	-0.000930625	0
315.693	0.304414	0	-0.10124	0	-0.000912073	0
315.771	0.300752	0	-0.103329	0	-0.000893236	0
315.85	0.297107	0	-0.105425	0	-0.000874126	0
315.929	0.29348	0	-0.107526	0	-0.000854739	0
316.007	0.28987	0	-0.109634	0	-0.000835084	0
316.086	0.286277	0	-0.111747	0	-0.000815164	0
316.165	0.282701	0	-0.113867	0	-0.000794987	0
316.243	0.279144	0	-0.115994	0	-0.00077455	0
316.322	0.275603	0	-0.118126	0	-0.000753866	0
316.401	0.272079	0	-0.120265	0	-0.000732938	0
316.479	0.268572	0	-0.12241	0	-0.000711773	0
316.558	0.265082	0	-0.124561	0	-0.000690374	0
316.637	0.261608	0	-0.126718	0	-0.000668757	0
316.715	0.258149	0	-0.128881	0	-0.000646921	0
316.794	0.254706	0	-0.131051	0	-0.000624877	0
316.873	0.251279	0	-0.133226	0	-0.00060263	0
316.951	0.247866	0	-0.135407	0	-0.000580189	0
317.03	0.244468	0	-0.137595	0	-0.000557559	0
317.109	0.241083	0	-0.139788	0	-0.000534755	0
317.188	0.237711	0	-0.141987	0	-0.00051178	0
317.266	0.234353	0	-0.144191	0	-0.000488645	0
317.345	0.231006	0	-0.146402	0	-0.000465359	0
317.424	0.227671	0	-0.148617	0	-0.000441932	0
317.502	0.224347	0	-0.150839	0	-0.000418368	0
317.581	0.221033	0	-0.153065	0	-0.000394681	0
317.66	0.217729	0	-0.155297	0	-0.00037088	0
317.738	0.214434	0	-0.157534	0	-0.000346975	0
317.817	0.211148	0	-0.159776	0	-0.000322974	0
317.896	0.207868	0	-0.162023	0	-0.000298893	0
317.974	0.204594	0	-0.164274	0	-0.000274738	0
318.053	0.201327	0	-0.166531	0	-0.000250523	0
318.132	0.198064	0	-0.168791	0	-0.000226256	0
318.21	0.194804	0	-0.171056	0	-0.000201953	0
318.289	0.191549	0	-0.173325	0	-0.000177615	0
318.368	0.188295	0	-0.175598	0	-0.000153263	0
318.446	0.185042	0	-0.177875	0	-0.000128903	0
318.525	0.18179	0	-0.180155	0	-0.000104549	0
318.604	0.178537	0	-0.182439	0	-8.021e-05	0
318.682	0.175282	0	-0.184725	0	-5.59055e-05	0
318.761	0.172024	0	-0.187015	0	-3.16405e-05	0
318.84	0.168762	0	-0.189307	0	-7.43012e-06	0
318.918	0.165495	0	-0.191602	0	1.67138e-05	0
318.997	0.162221	0	-0.193899	0	4.07764e-05	0
319.076	0.158941	0	-0.196198	0	6.47543e-05	0
319.154	0.155652	0	-0.198499	0	8.86271e-05	0
319.233	0.152354	0	-0.200801	0	0.000112386	0
319.312	0.149045	0	-0.203104	0	0.000136015	0
319.39	0.145725	0	-0.205409	0	0.000159504	0
319.469	0.142392	0	-0.207713	0	0.000182838	0
319.548	0.139045	0	-0.210018	0	0.00020601	0
319.626	0.135682	0	-0.212323	0	0.000229002	0
319.705	0.132303	0	-0.214627	0	0.000251803	0
319.784	0.128907	0	-0.216931	0	0.000274401	0
319.862	0.125493	0	-0.219234	0	0.000296785	0
319.941	0.122058	0	-0.221535	0	0.000318936	0
320.02	0.118602	0	-0.223834	0	0.000340846	0
320.098	0.115123	0	-0.226132	0	0.000362502	0
320.177	0.111621	0	-0.228426	0	0.00038389	0
320.256	0.108094	0	-0.230718	0	0.000404997	0
320.334	0.104541	0	-0.233007	0	0.000425817	0
320.413	0.100962	0	-0.235291	0	0.000446331	0
320.492	0.0973539	0	-0.237572	0	0.00046653	0
320.57	0.0937166	0	-0.239848	0	0.000486401	0
320.649	0.0900492	0	-0.242119	0	0.000505934	0
320.728	0.0863491	0	-0.244384	0	0.00052511	0
320.806	0.0826164	0	-0.246644	0	0.000543924	0
320.885	0.0788495	0	-0.248897	0	0.000562361	0
320.964	0.0750472	0	-0.251143	0	0.00058041	0
321.042	0.0712081	0	-0.253382	0	0.000598058	0
321.121	0.0673325	0	-0.255614	0	0.000615301	0
321.2	0.0634179	0	-0.257837	0	0.000632121	0
321.278	0.0594639	0	-0.260051	0	0.00064851	0
321.357	0.0554692	0	-0.262256	0	0.000664456	0
321.436	0.0514334	0	-0.264451	0	0.000679953	0
321.514	0.0473537	0	-0.266636	0	0.00069498	0
321.593	0.0432307	0	-0.26881	0	0.000709535	0
321.672	0.0390627	0	-0.270973	0	0.000723606	0
321.75	0.0348489	0	-0.273124	0	0.000737183	0
321.829	0.0305878	0	-0.275262	0	0.000750253	0
321.908	0.0262802	0	-0.277388	0	0.000762817	0
321.986	0.0219236	0	-0.2795	0	0.000774858	0
322.065	0.0175179	0	-0.281598	0	0.00078637	0
322.144	0.0130621	0	-0.283681	0	0.000797344	0
322.222	0.00855596	0	-0.285749	0	0.000807775	0
322.301	0.00399679	0	-0.287801	0	0.000817645	0
322.38	-0.000614515	0	-0.289837	0	0.000826955	0
322.458	-0.00527935	0	-0.291855	0	0.000835694	0
322.537	-0.00999806	0	-0.293857	0	0.000843858	0
322.616	-0.0147711	0	-0.29584	0	0.000851439	0
322.694	-0.0195985	0	-0.297804	0	0.000858435	0
322.773	-0.0244836	0	-0.299749	0	0.000864825	0
322.852	-0.0294246	0	-0.301673	0	0.000870617	0
322.93	-0.0344228	0	-0.303578	0	0.000875799	0
323.009	-0.0394784	0	-0.305461	0	0.00088037	0
323.088	-0.0445918	0	-0.307322	0	0.000884324	0
323.166	-0.0497629	0	-0.309161	0	0.000887659	0
323.245	-0.054994	0	-0.310976	0	0.000890361	0
323.324	-0.0602838	0	-0.312768	0	0.000892435	0
323.402	-0.0656331	0	-0.314536	0	0.000893875	0
323.481	-0.0710424	0	-0.316279	0	0.000894676	0
323.56	-0.0765122	0	-0.317996	0	0.000894833	0
323.638	-0.0820408	0	-0.319687	0	0.000894357	0
323.717	-0.0876302	0	-0.321351	0	0.000893233	0
323.796	-0.0932797	0	-0.322988	0	0.000891465	0
323.874	-0.0989894	0	-0.324597	0	0.000889051	0
323.953	-0.104759	0	-0.326177	0	0.000885994	0
324.032	-0.11059	0	-0.327727	0	0.00088228	0
324.11	-0.116481	0	-0.329248	0	0.00087792	0
324.189	-0.122432	0	-0.330738	0	0.00087291	0
324.268	-0.128444	0	-0.332197	0	0.000867254	0
324.346	-0.134515	0	-0.333624	0	0.000860952	0
324.425	-0.140645	0	-0.335019	0	0.000854007	0
324.504	-0.146835	0	-0.336381	0	0.000846413	0
324.582	-0.153085	0	-0.337709	0	0.00083818	0
324.661	-0.159392	0	-0.339003	0	0.000829308	0
324.74	-0.165759	0	-0.340262	0	0.000819799	0
324.818	-0.172183	0	-0.341485	0	0.000809654	0
324.897	-0.178664	0	-0.342673	0	0.000798887	0
324.976	-0.185201	0	-0.343823	0	0.000787493	0
325.054	-0.191795	0	-0.344937	0	0.00077548	0
325.133	-0.198443	0	-0.346013	0	0.000762853	0
325.212	-0.205146	0	-0.34705	0	0.000749619	0
325.29	-0.211904	0	-0.348049	0	0.000735776	0
325.369	-0.218714	0	-0.349007	0	0.000721337	0
325.448	-0.225577	0	-0.349926	0	0.000706305	0
325.526	-0.232492	0	-0.350805	0	0.000690688	0
325.605	-0.239457	0	-0.351642	0	0.00067449	0
325.684	-0.246471	0	-0.352437	0	0.00065773	0
325.762	-0.253534	0	-0.35319	0	0.000640405	0
325.841	-0.260644	0	-0.353901	0	0.000622529	0
325.92	-0.2678	0	-0.354568	0	0.000604108	0
325.998	-0.275001	0	-0.355191	0	0.000585156	0
326.077	-0.282246	0	-0.35577	0	0.000565671	0
326.156	-0.289535	0	-0.356305	0	0.000545673	0
326.234	-0.296864	0	-0.356794	0	0.000525167	0
326.313	-0.304234	0	-0.357238	0	0.000504164	0
326.392	-0.311644	0	-0.357636	0	0.000482672	0
326.47	-0.31909	0	-0.357987	0	0.000460715	0
326.549	-0.326572	0	-0.358291	0	0.000438293	0
326.628	-0.334088	0	-0.358547	0	0.000415423	0
326.706	-0.341637	0	-0.358756	0	0.000392115	0
326.785	-0.349217	0	-0.358917	0	0.000368387	0
326.864	-0.356828	0	-0.359029	0	0.000344237	0
326.942	-0.364466	0	-0.359092	0	0.00031969	0
327.021	-0.372131	0	-0.359106	0	0.000294756	0
327.1	-0.379822	0	-0.35907	0	0.000269447	0
327.178	-0.387536	0	-0.358984	0	0.000243774	0
327.257	-0.395269	0	-0.358848	0	0.000217767	0
327.336	-0.403023	0	-0.358662	0	0.000191425	0
327.414	-0.410794	0	-0.358424	0	0.00016477	0
327.493	-0.418581	0	-0.358135	0	0.000137815	0
327.572	-0.426381	0	-0.357795	0	0.000110581	0
327.65	-0.434194	0	-0.357403	0	8.30658e-05	0
327.729	-0.442017	0	-0.356959	0	5.53003e-05	0
327.808	-0.449847	0	-0.356463	0	2.72941e-05	0
327.886	-0.457684	0	-0.355915	0	-9.33498e-07	0
327.965	-0.465525	0	-0.355314	0	-2.93667e-05	0
328.044	-0.473366	0	-0.354661	0	-5.79861e-05	0
328.122	-0.481209	0	-0.353954	0	-8.67858e-05	0
328.201	-0.489049	0	-0.353195	0	-0.00011574	0
328.28	-0.496885	0	-0.352382	0	-0.000144834	0
328.358	-0.504715	0	-0.351517	0	-0.000174053	0
328.437	-0.512536	0	-0.350598	0	-0.000203381	0
328.516	-0.520345	0	-0.349625	0	-0.000232789	0
328.594	-0.528142	0	-0.348599	0	-0.000262272	0
328.673	-0.535923	0	-0.34752	0	-0.000291806	0
328.752	-0.543686	0	-0.346387	0	-0.000321375	0
328.83	-0.551429	0	-0.3452	0	-0.000350958	0
328.909	-0.559152	0	-0.343961	0	-0.000380549	0
328.988	-0.566849	0	-0.342667	0	-0.00041012	0
329.066	-0.57452	0	-0.34132	0	-0.000439656	0
329.145	-0.582163	0	-0.33992	0	-0.000469141	0
329.224	-0.589775	0	-0.338466	0	-0.000498559	0
329.302	-0.597353	0	-0.33696	0	-0.000527879	0
329.381	-0.604895	0	-0.3354	0	-0.000557095	0
329.46	-0.6124	0	-0.333787	0	-0.000586185	0
329.538	-0.619863	0	-0.332122	0	-0.000615131	0
329.617	-0.627284	0	-0.330404	0	-0.00064391	0
329.696	-0.634661	0	-0.328633	0	-0.00067252	0
329.774	-0.641991	0	-0.326811	0	-0.00070093	0
329.853	-0.649271	0	-0.324936	0	-0.000729128	0
329.932	-0.6565	0	-0.32301	0	-0.000757093	0
330.01	-0.663675	0	-0.321032	0	-0.000784807	0
330.089	-0.670793	0	-0.319003	0	-0.000812251	0
330.168	-0.677854	0	-0.316923	0	-0.000839417	0
330.246	-0.684854	0	-0.314792	0	-0.000866279	0
330.325	-0.691791	0	-0.312612	0	-0.000892823	0
330.404	-0.698663	0	-0.310381	0	-0.000919032	0
330.482	-0.705469	0	-0.308101	0	-0.000944893	0
330.561	-0.712204	0	-0.305772	0	-0.000970377	0
330.64	-0.718868	0	-0.303395	0	-0.000995478	0
330.718	-0.725458	0	-0.300969	0	-0.00102018	0
330.797	-0.731973	0	-0.298495	0	-0.00104445	0
330.876	-0.738408	0	-0.295974	0	-0.00106829	0
330.954	-0.744765	0	-0.293406	0	-0.00109169	0
331.033	-0.75104	0	-0.290792	0	-0.00111462	0
331.112	-0.757231	0	-0.288132	0	-0.00113707	0
331.19	-0.763336	0	-0.285427	0	-0.00115903	0
331.269	-0.769354	0	-0.282677	0	-0.00118048	0
331.348	-0.77528	0	-0.279883	0	-0.0012014	0
331.426	-0.781115	0	-0.277045	0	-0.00122178	0
331.505	-0.786857	0	-0.274165	0	-0.0012416	0
331.584	-0.792503	0	-0.271242	0	-0.00126086	0
331.662	-0.798051	0	-0.268277	0	-0.00127954	0
331.741	-0.803501	0	-0.265272	0	-0.00129763	0
331.82	-0.80885	0	-0.262226	0	-0.00131511	0
331.898	-0.814097	0	-0.25914	0	-0.00133198	0
331.977	-0.81924	0	-0.256015	0	-0.00134822	0
332.056	-0.824277	0	-0.252853	0	-0.00136381	0
332.134	-0.829206	0	-0.249653	0	-0.00137875	0
332.213	-0.834027	0	-0.246416	0	-0.00139304	0
332.292	-0.838738	0	-0.243143	0	-0.00140664	0
332.37	-0.843338	0	-0.239835	0	-0.00141956	0
332.449	-0.847824	0	-0.236492	0	-0.00143179	0
332.528	-0.852197	0	-0.233116	0	-0.00144332	0
332.606	-0.856453	0	-0.229707	0	-0.00145414	0
332.685	-0.860593	0	-0.226267	0	-0.00146423	0
332.764	-0.864615	0	-0.222795	0	-0.00147359	0
332.842	-0.868517	0	-0.219293	0	-0.00148222	0
332.921	-0.8723	0	-0.215762	0	-0.00149011	0
333	-0.875961	0	-0.212203	0	-0.00149724	0
333.078	-0.8795	0	-0.208616	0	-0.00150362	0
333.157	-0.882916	0	-0.205002	0	-0.00150924	0
333.236	-0.886208	0	-0.201363	0	-0.00151409	0
333.314	-0.889374	0	-0.197699	0	-0.00151816	0
333.393	-0.892416	0	-0.194012	0	-0.00152147	0
333.472	-0.895332	0	-0.190302	0	-0.00152398	0
333.55	-0.89812	0	-0.18657	0	-0.00152572	0
333.629	-0.900782	0	-0.182817	0	-0.00152667	0
333.708	-0.903316	0	-0.179044	0	-0.00152683	0
333.786	-0.90572	0	-0.175253	0	-0.00152619	0
333.865	-0.907996	0	-0.171444	0	-0.00152476	0
333.944	-0.910143	0	-0.167618	0	-0.00152253	0
334.022	-0.91216	0	-0.163776	0	-0.00151951	0
334.101	-0.914048	0	-0.15992	0	-0.00151569	0
334.18	-0.915806	0	-0.15605	0	-0.00151108	0
334.258	-0.917434	0	-0.152168	0	-0.00150567	0
334.337	-0.918932	0	-0.148274	0	-0.00149947	0
334.416	-0.9203	0	-0.144369	0	-0.00149247	0
334.494	-0.921538	0	-0.140455	0	-0.00148469	0
334.573	-0.922646	0	-0.136533	0	-0.00147611	0
