# SeaFEM body loads file v.1.0
DataSets	Body data Auto1
SubSets	Total Loads	Reactions	Hydrostatic Pressure Loads	Dynamic Pressure Loads
numResults	24
time[s]	Fx	Fy	Fz	Mx	My	Mz	RFx	RFy	RFz	RMx	RMy	RMz	HFx	HFy	HFz	HMx	HMy	HMz	DFx	DFy	DFz	DMx	DMy	DMz
300.038	9749.86	0.49499	7.90706e+07	18424.8	-1.03669e+07	-7.12407	0	0	0	0	0	0	0	0	8.01688e+07	18423.2	-9.85666e+06	0	34147.4	0.49499	4168.43	1.59314	-2.22597e+06	-7.12407
300.117	8361.61	0.43575	7.907e+07	18424.7	-1.03539e+07	-6.85023	0	0	0	0	0	0	0	0	8.01685e+07	18423.2	-9.9137e+06	0	32938.3	0.43575	3909.73	1.47091	-2.16573e+06	-6.85023
300.195	6989.98	0.356848	7.90695e+07	18424.6	-1.03393e+07	-6.58062	0	0	0	0	0	0	0	0	8.01681e+07	18423.2	-9.96828e+06	0	31744.2	0.356848	3657.57	1.39704	-2.10628e+06	-6.58062
300.274	5349.26	0.236471	7.90689e+07	18423.8	-1.03078e+07	-6.24542	0	0	0	0	0	0	0	0	8.01678e+07	18423.2	-1.00204e+07	0	30279.4	0.236471	3411.88	0.616826	-2.03241e+06	-6.24542
300.353	3734.85	0.0987167	7.90684e+07	18423.1	-1.02751e+07	-5.91677	0	0	0	0	0	0	0	0	8.01675e+07	18423.2	-1.00702e+07	0	28839	0.0987167	3172.17	-0.110522	-1.95962e+06	-5.91677
300.431	2268.27	-0.0448944	7.90678e+07	18422.8	-1.02477e+07	-5.62433	0	0	0	0	0	0	0	0	8.01672e+07	18423.2	-1.01176e+07	0	27544.5	-0.0448944	2939.53	-0.410573	-1.89446e+06	-5.62433
300.51	732.127	-0.209162	7.90673e+07	18422.3	-1.02139e+07	-5.31503	0	0	0	0	0	0	0	0	8.01669e+07	18423.2	-1.01627e+07	0	26178.7	-0.209162	2712.5	-0.914714	-1.82523e+06	-5.31503
300.589	-903.273	-0.392244	7.90668e+07	18421.6	-1.01724e+07	-4.98155	0	0	0	0	0	0	0	0	8.01666e+07	18423.2	-1.02055e+07	0	24711.5	-0.392244	2492.43	-1.63201	-1.7505e+06	-4.98155
300.667	-2492.67	-0.578534	7.90664e+07	18421	-1.01309e+07	-4.65932	0	0	0	0	0	0	0	0	8.01663e+07	18423.2	-1.02461e+07	0	23288.2	-0.578534	2278.48	-2.20715	-1.67792e+06	-4.65932
300.746	-4042.78	-0.763257	7.90659e+07	18420.6	-1.00891e+07	-4.34672	0	0	0	0	0	0	0	0	8.0166e+07	18423.2	-1.02845e+07	0	21902.1	-0.763257	2071	-2.63171	-1.60713e+06	-4.34672
300.825	-5643.42	-0.94794	7.90654e+07	18420.1	-1.00423e+07	-4.02175	0	0	0	0	0	0	0	0	8.01657e+07	18423.2	-1.03207e+07	0	20463.2	-0.94794	1870.3	-3.11666	-1.53347e+06	-4.02175
300.903	-7271.32	-1.12568	7.9065e+07	18419.5	-9.99158e+06	-3.69009	0	0	0	0	0	0	0	0	8.01654e+07	18423.2	-1.03549e+07	0	18994.7	-1.12568	1675.16	-3.64417	-1.45799e+06	-3.69009
300.982	-8819.87	-1.28267	7.90646e+07	18419.3	-9.94301e+06	-3.37767	0	0	0	0	0	0	0	0	8.01652e+07	18423.2	-1.0387e+07	0	17603.3	-1.28267	1486.98	-3.85928	-1.38661e+06	-3.37767
301.061	-10468.4	-1.4283	7.90642e+07	18418.9	-9.88649e+06	-3.04092	0	0	0	0	0	0	0	0	8.01649e+07	18423.2	-1.04171e+07	0	16109.4	-1.4283	1305.2	-4.25265	-1.30925e+06	-3.04092
301.139	-12128.8	-1.5529	7.90638e+07	18418.6	-9.8275e+06	-2.70098	0	0	0	0	0	0	0	0	8.01647e+07	18423.2	-1.04452e+07	0	14601.2	-1.5529	1129.57	-4.58972	-1.23131e+06	-2.70098
301.218	-13721.7	-1.64647	7.90634e+07	18418.6	-9.76988e+06	-2.37743	0	0	0	0	0	0	0	0	8.01644e+07	18423.2	-1.04715e+07	0	13158	-1.64647	960.869	-4.62199	-1.15661e+06	-2.37743
301.297	-13542.6	-1.63538	7.9063e+07	18423.6	-9.86135e+06	-2.46136	0	0	0	0	0	0	0	0	8.01642e+07	18423.2	-1.04958e+07	0	13484.9	-1.63538	797.465	0.383452	-1.23279e+06	-2.46136
301.375	-19691	-1.89918	7.90627e+07	18411.1	-9.43365e+06	-1.07987	0	0	0	0	0	0	0	0	8.0164e+07	18423.2	-1.05184e+07	0	7480.54	-1.89918	641.518	-12.0975	-791546	-1.07987
301.454	-12040.7	-1.464	7.90624e+07	18436.5	-1.01189e+07	-2.8987	0	0	0	0	0	0	0	0	8.01638e+07	18423.2	-1.05391e+07	0	15273.6	-1.464	476.398	13.2689	-1.46501e+06	-2.8987
301.533	-28632.9	-2.12438	7.90621e+07	18396.4	-8.80933e+06	0.889977	0	0	0	0	0	0	0	0	8.01636e+07	18423.2	-1.05582e+07	0	-1181.01	-2.12438	366.048	-26.785	-145172	0.889977
301.611	-18559.6	-1.55119	7.90617e+07	18428.6	-9.72796e+06	-1.4716	0	0	0	0	0	0	0	0	8.01634e+07	18423.2	-1.05755e+07	0	9028.99	-1.55119	203.792	5.35863	-1.05528e+06	-1.4716
301.69	-24079.8	-1.60911	7.90615e+07	18418.3	-9.30489e+06	-0.251674	0	0	0	0	0	0	0	0	8.01632e+07	18423.2	-1.05913e+07	0	3641.34	-1.60911	77.4547	-4.91092	-625157	-0.251674
301.769	-27438.9	-1.65869	7.90612e+07	18414.4	-9.16339e+06	0.514614	0	0	0	0	0	0	0	0	8.0163e+07	18423.2	-1.06055e+07	0	414.434	-1.65869	-49.4156	-8.77578	-478159	0.514614
301.847	-23592.4	-1.146	7.90609e+07	18429.9	-9.43392e+06	-0.4636	0	0	0	0	0	0	0	0	8.01628e+07	18423.2	-1.0618e+07	0	4387.39	-1.146	-168.182	6.69982	-744655	-0.4636
301.926	-31122.6	-1.37239	7.90607e+07	18414.7	-8.96652e+06	1.27733	0	0	0	0	0	0	0	0	8.01626e+07	18423.2	-1.06292e+07	0	-3017.31	-1.37239	-282.552	-8.50589	-274629	1.27733
302.005	-28841.2	-0.94284	7.90605e+07	18426.1	-9.14729e+06	0.680272	0	0	0	0	0	0	0	0	8.01625e+07	18423.2	-1.06388e+07	0	-614.709	-0.94284	-390.713	2.92055	-454121	0.680272
302.083	-31821	-0.837283	7.90603e+07	18423.4	-8.97503e+06	1.33632	0	0	0	0	0	0	0	0	8.01623e+07	18423.2	-1.06471e+07	0	-3476.25	-0.837283	-492.841	0.158359	-281867	1.33632
302.162	-33276.8	-0.630289	7.90601e+07	18424.8	-8.91092e+06	1.63345	0	0	0	0	0	0	0	0	8.01622e+07	18423.2	-1.06541e+07	0	-4816.79	-0.630289	-589.638	1.59076	-219028	1.63345
302.241	-34690.9	-0.383218	7.90599e+07	18426.2	-8.82135e+06	1.90949	0	0	0	0	0	0	0	0	8.01621e+07	18423.2	-1.06598e+07	0	-6118.89	-0.383218	-681.268	2.99878	-131926	1.90949
302.319	-36437.2	-0.21778	7.90597e+07	18427.1	-8.76558e+06	2.29051	0	0	0	0	0	0	0	0	8.0162e+07	18423.2	-1.06642e+07	0	-7756.57	-0.21778	-765.74	3.88797	-79769.7	2.29051
302.398	-37888.2	0.050647	7.90596e+07	18428.3	-8.64861e+06	2.56687	0	0	0	0	0	0	0	0	8.01618e+07	18423.2	-1.06674e+07	0	-9102.18	0.050647	-846.531	5.06669	32500	2.56687
302.477	-39590.8	0.200091	7.90594e+07	18429.3	-8.59984e+06	2.94177	0	0	0	0	0	0	0	0	8.01617e+07	18423.2	-1.06695e+07	0	-10702.6	0.200091	-920.252	6.06704	75527.2	2.94177
302.555	-41090.6	0.429376	7.90593e+07	18430.3	-8.48995e+06	3.2368	0	0	0	0	0	0	0	0	8.01616e+07	18423.2	-1.06706e+07	0	-12103.7	0.429376	-990.766	7.0905	178686	3.2368
302.634	-42650.6	0.59441	7.90592e+07	18431.3	-8.41547e+06	3.56473	0	0	0	0	0	0	0	0	8.01616e+07	18423.2	-1.06706e+07	0	-13568.1	0.59441	-1055.38	8.13739	245497	3.56473
302.713	-44209.5	0.759542	7.90591e+07	18432.3	-8.3245e+06	3.88644	0	0	0	0	0	0	0	0	8.01615e+07	18423.2	-1.06696e+07	0	-15034.9	0.759542	-1114.05	9.07014	327905	3.88644
302.791	-45711.9	0.903047	7.9059e+07	18433.2	-8.2411e+06	4.19771	0	0	0	0	0	0	0	0	8.01614e+07	18423.2	-1.06676e+07	0	-16448.6	0.903047	-1169.08	10.0376	401905	4.19771
302.87	-47231.6	1.02679	7.9059e+07	18434.1	-8.15356e+06	4.51318	0	0	0	0	0	0	0	0	8.01614e+07	18423.2	-1.06648e+07	0	-17883.1	1.02679	-1219.11	10.8571	479253	4.51318
302.949	-48791.7	1.12391	7.90589e+07	18434.7	-8.06356e+06	4.83974	0	0	0	0	0	0	0	0	8.01613e+07	18423.2	-1.06611e+07	0	-19361.3	1.12391	-1263.93	11.4874	558316	4.83974
303.027	-50134.2	1.21342	7.90589e+07	18435.7	-7.98402e+06	5.11414	0	0	0	0	0	0	0	0	8.01613e+07	18423.2	-1.06566e+07	0	-20625.6	1.21342	-1304.59	12.5544	626222	5.11414
303.106	-51666.4	1.26112	7.90589e+07	18436.2	-7.89347e+06	5.43588	0	0	0	0	0	0	0	0	8.01612e+07	18423.2	-1.06513e+07	0	-22083.1	1.26112	-1340.86	12.993	704508	5.43588
303.185	-53100.5	1.28808	7.90589e+07	18436.7	-7.80728e+06	5.7347	0	0	0	0	0	0	0	0	8.01612e+07	18423.2	-1.06454e+07	0	-23446	1.28808	-1372.98	13.5517	777832	5.7347
303.263	-54530.9	1.28599	7.90589e+07	18437.2	-7.72042e+06	6.03363	0	0	0	0	0	0	0	0	8.01612e+07	18423.2	-1.06388e+07	0	-24808.8	1.28599	-1400.62	13.998	851290	6.03363
303.342	-55951.4	1.25489	7.90589e+07	18437.5	-7.63331e+06	6.33122	0	0	0	0	0	0	0	0	8.01612e+07	18423.2	-1.06315e+07	0	-26165.3	1.25489	-1424.81	14.3074	924486	6.33122
303.421	-57350.4	1.19725	7.90589e+07	18437.7	-7.54659e+06	6.62455	0	0	0	0	0	0	0	0	8.01612e+07	18423.2	-1.06237e+07	0	-27503.8	1.19725	-1444.9	14.5461	996841	6.62455
303.499	-58724.4	1.11519	7.9059e+07	18437.9	-7.46065e+06	6.91285	0	0	0	0	0	0	0	0	8.01612e+07	18423.2	-1.06154e+07	0	-28821	1.11519	-1461.32	14.7144	1.06801e+06	6.91285
303.578	-60087.8	1.01077	7.9059e+07	18438	-7.37448e+06	7.1995	0	0	0	0	0	0	0	0	8.01613e+07	18423.2	-1.06066e+07	0	-30131.2	1.01077	-1474.19	14.7793	1.13905e+06	7.1995
303.657	-61428.3	0.888117	7.90591e+07	18438	-7.28897e+06	7.48158	0	0	0	0	0	0	0	0	8.01613e+07	18423.2	-1.05973e+07	0	-31422.2	0.888117	-1483.59	14.7845	1.20911e+06	7.48158
303.735	-62742.3	0.750729	7.90592e+07	18437.9	-7.20446e+06	7.75824	0	0	0	0	0	0	0	0	8.01613e+07	18423.2	-1.05877e+07	0	-32690.2	0.750729	-1489.98	14.735	1.2779e+06	7.75824
303.814	-64045.8	0.601259	7.90593e+07	18437.8	-7.11983e+06	8.03327	0	0	0	0	0	0	0	0	8.01614e+07	18423.2	-1.05776e+07	0	-33951.3	0.601259	-1493.26	14.6076	1.34657e+06	8.03327
303.893	-65313.6	0.444781	7.90594e+07	18437.7	-7.03687e+06	8.30069	0	0	0	0	0	0	0	0	8.01615e+07	18423.2	-1.05673e+07	0	-35180.5	0.444781	-1493.47	14.486	1.41339e+06	8.30069
303.971	-66570.4	0.283108	7.90595e+07	18437.5	-6.95388e+06	8.56638	0	0	0	0	0	0	0	0	8.01615e+07	18423.2	-1.05567e+07	0	-36402.3	0.283108	-1491.34	14.2879	1.48008e+06	8.56638
304.05	-67798	0.121111	7.90596e+07	18437.3	-6.87218e+06	8.82598	0	0	0	0	0	0	0	0	8.01616e+07	18423.2	-1.05458e+07	0	-37598.5	0.121111	-1486.94	14.0789	1.54538e+06	8.82598
304.129	-69008.2	-0.0373598	7.90598e+07	18437.1	-6.791e+06	9.08228	0	0	0	0	0	0	0	0	8.01617e+07	18423.2	-1.05348e+07	0	-38780.9	-0.0373598	-1478.82	13.9084	1.61009e+06	9.08228
304.207	-70190.3	-0.188845	7.90599e+07	18436.9	-6.71106e+06	9.3328	0	0	0	0	0	0	0	0	8.01618e+07	18423.2	-1.05236e+07	0	-39938.9	-0.188845	-1469.66	13.7049	1.67353e+06	9.3328
304.286	-71349.2	-0.32912	7.90601e+07	18436.7	-6.63212e+06	9.57863	0	0	0	0	0	0	0	0	8.01619e+07	18423.2	-1.05122e+07	0	-41077.3	-0.32912	-1457.67	13.5524	1.73598e+06	9.57863
304.365	-72483	-0.455614	7.90603e+07	18436.6	-6.55429e+06	9.8194	0	0	0	0	0	0	0	0	8.0162e+07	18423.2	-1.05008e+07	0	-42194.4	-0.455614	-1444.71	13.3904	1.79735e+06	9.8194
304.443	-73592	-0.565198	7.90605e+07	18436.5	-6.47761e+06	10.0551	0	0	0	0	0	0	0	0	8.01621e+07	18423.2	-1.04893e+07	0	-43290.1	-0.565198	-1429.37	13.2966	1.85766e+06	10.0551
304.522	-74670	-0.656562	7.90607e+07	18436.4	-6.40252e+06	10.2844	0	0	0	0	0	0	0	0	8.01623e+07	18423.2	-1.04777e+07	0	-44358.5	-0.656562	-1413.18	13.2339	1.91649e+06	10.2844
304.601	-75728	-0.729212	7.90609e+07	18436.4	-6.32829e+06	10.5098	0	0	0	0	0	0	0	0	8.01624e+07	18423.2	-1.04662e+07	0	-45410.6	-0.729212	-1395.08	13.2337	1.97461e+06	10.5098
304.679	-76754.9	-0.783105	7.90611e+07	18436.5	-6.25571e+06	10.7288	0	0	0	0	0	0	0	0	8.01626e+07	18423.2	-1.04547e+07	0	-46435.1	-0.783105	-1376.38	13.2793	2.03125e+06	10.7288
304.758	-77758.2	-0.819115	7.90613e+07	18436.6	-6.18436e+06	10.9432	0	0	0	0	0	0	0	0	8.01627e+07	18423.2	-1.04433e+07	0	-47439.5	-0.819115	-1356.29	13.397	2.08688e+06	10.9432
304.837	-78728.9	-0.838157	7.90616e+07	18436.8	-6.11476e+06	11.1508	0	0	0	0	0	0	0	0	8.01629e+07	18423.2	-1.04319e+07	0	-48414.9	-0.838157	-1336.11	13.5623	2.14099e+06	11.1508
304.915	-79761.4	-0.848653	7.90618e+07	18436.8	-6.04194e+06	11.3748	0	0	0	0	0	0	0	0	8.01631e+07	18423.2	-1.04207e+07	0	-49455.6	-0.848653	-1314.7	13.5855	2.19858e+06	11.3748
304.994	-80456.6	-0.820703	7.90621e+07	18437.7	-5.98718e+06	11.5178	0	0	0	0	0	0	0	0	8.01632e+07	18423.2	-1.04096e+07	0	-50162.7	-0.820703	-1293.5	14.4625	2.23842e+06	11.5178
305.073	-81458	-0.805569	7.90623e+07	18437.7	-5.91596e+06	11.7367	0	0	0	0	0	0	0	0	8.01634e+07	18423.2	-1.03987e+07	0	-51179.5	-0.805569	-1271.33	14.5551	2.29505e+06	11.7367
305.151	-82287.2	-0.768343	7.90626e+07	18438.2	-5.85431e+06	11.9151	0	0	0	0	0	0	0	0	8.01636e+07	18423.2	-1.0388e+07	0	-52027.5	-0.768343	-1250.11	15.0494	2.34244e+06	11.9151
305.23	-83113.9	-0.723278	7.90629e+07	18438.8	-5.79272e+06	12.0941	0	0	0	0	0	0	0	0	8.01638e+07	18423.2	-1.03775e+07	0	-52876.6	-0.723278	-1228.48	15.5599	2.39015e+06	12.0941
305.309	-83920.5	-0.671766	7.90632e+07	18439.3	-5.73248e+06	12.2697	0	0	0	0	0	0	0	0	8.01641e+07	18423.2	-1.03673e+07	0	-53708.9	-0.671766	-1207.8	16.0804	2.43691e+06	12.2697
305.387	-84687.8	-0.61388	7.90634e+07	18439.9	-5.67451e+06	12.437	0	0	0	0	0	0	0	0	8.01643e+07	18423.2	-1.03573e+07	0	-54505.4	-0.61388	-1187.88	16.6743	2.4818e+06	12.437
305.466	-85422.5	-0.551467	7.90637e+07	18440.5	-5.61857e+06	12.5978	0	0	0	0	0	0	0	0	8.01645e+07	18423.2	-1.03476e+07	0	-55272.6	-0.551467	-1168.28	17.3473	2.52512e+06	12.5978
305.545	-86135.9	-0.486505	7.90641e+07	18441.2	-5.56382e+06	12.7548	0	0	0	0	0	0	0	0	8.01648e+07	18423.2	-1.03382e+07	0	-56022	-0.486505	-1149.94	18.0323	2.56768e+06	12.7548
305.623	-86811.8	-0.418282	7.90644e+07	18442	-5.51149e+06	12.9041	0	0	0	0	0	0	0	0	8.0165e+07	18423.2	-1.03291e+07	0	-56737	-0.418282	-1132.55	18.7925	2.60831e+06	12.9041
305.702	-87463.7	-0.34795	7.90647e+07	18442.7	-5.46055e+06	13.0488	0	0	0	0	0	0	0	0	8.01653e+07	18423.2	-1.03203e+07	0	-57431.5	-0.34795	-1117.16	19.5477	2.64803e+06	13.0488
305.781	-88073.6	-0.27384	7.9065e+07	18443.6	-5.41234e+06	13.1849	0	0	0	0	0	0	0	0	8.01655e+07	18423.2	-1.03119e+07	0	-58087.2	-0.27384	-1103.17	20.3784	2.68552e+06	13.1849
305.859	-88660.7	-0.196769	7.90653e+07	18444.4	-5.36552e+06	13.3167	0	0	0	0	0	0	0	0	8.01658e+07	18423.2	-1.03039e+07	0	-58723.2	-0.196769	-1090.69	21.232	2.72214e+06	13.3167
305.938	-89213.9	-0.11647	7.90657e+07	18445.3	-5.32086e+06	13.4417	0	0	0	0	0	0	0	0	8.01661e+07	18423.2	-1.02962e+07	0	-59328.7	-0.11647	-1080.87	22.0906	2.75713e+06	13.4417
306.017	-89734	-0.0325625	7.9066e+07	18446.2	-5.27833e+06	13.56	0	0	0	0	0	0	0	0	8.01664e+07	18423.2	-1.02888e+07	0	-59904.1	-0.0325625	-1072.13	23.0257	2.79053e+06	13.56
306.095	-90224.7	0.0525626	7.90664e+07	18447.1	-5.23767e+06	13.6725	0	0	0	0	0	0	0	0	8.01667e+07	18423.2	-1.02819e+07	0	-60453.2	0.0525626	-1067.53	23.8948	2.82261e+06	13.6725
306.174	-90685.6	0.13896	7.90667e+07	18448	-5.19894e+06	13.7791	0	0	0	0	0	0	0	0	8.0167e+07	18423.2	-1.02754e+07	0	-60975.7	0.13896	-1064.18	24.8288	2.85332e+06	13.7791
306.253	-91105.2	0.224893	7.90671e+07	18449	-5.16293e+06	13.877	0	0	0	0	0	0	0	0	8.01673e+07	18423.2	-1.02692e+07	0	-61459.9	0.224893	-1064.08	25.774	2.88186e+06	13.877
306.331	-91505.4	0.30715	7.90674e+07	18449.8	-5.12812e+06	13.9715	0	0	0	0	0	0	0	0	8.01676e+07	18423.2	-1.02635e+07	0	-61927.6	0.30715	-1067.6	26.6569	2.90978e+06	13.9715
306.41	-91861.2	0.385813	7.90678e+07	18450.8	-5.09626e+06	14.0565	0	0	0	0	0	0	0	0	8.01679e+07	18423.2	-1.02581e+07	0	-62353.9	0.385813	-1074.09	27.5774	2.93533e+06	14.0565
306.489	-92194.3	0.457937	7.90682e+07	18451.7	-5.06584e+06	14.1372	0	0	0	0	0	0	0	0	8.01682e+07	18423.2	-1.02532e+07	0	-62760.4	0.457937	-1083.37	28.4875	2.96001e+06	14.1372
306.567	-92489.8	0.522207	7.90685e+07	18452.6	-5.03793e+06	14.2102	0	0	0	0	0	0	0	0	8.01686e+07	18423.2	-1.02487e+07	0	-63132.3	0.522207	-1096.93	29.3668	2.98276e+06	14.2102
306.646	-92759.6	0.577084	7.90689e+07	18453.4	-5.01164e+06	14.278	0	0	0	0	0	0	0	0	8.01689e+07	18423.2	-1.02446e+07	0	-63481.2	0.577084	-1113.58	30.2395	3.00447e+06	14.278
306.725	-92988.8	0.621266	7.90693e+07	18454.3	-4.9881e+06	14.3373	0	0	0	0	0	0	0	0	8.01693e+07	18423.2	-1.02409e+07	0	-63792.3	0.621266	-1135.25	31.0671	3.024e+06	14.3373
306.803	-93187.4	0.653996	7.90697e+07	18455.1	-4.96654e+06	14.3905	0	0	0	0	0	0	0	0	8.01696e+07	18423.2	-1.02376e+07	0	-64075.6	0.653996	-1160.15	31.9062	3.04213e+06	14.3905
306.882	-93406.5	0.66962	7.907e+07	18455.7	-4.94413e+06	14.4499	0	0	0	0	0	0	0	0	8.017e+07	18423.2	-1.02347e+07	0	-64382	0.66962	-1190.42	32.5352	3.06168e+06	14.4499
306.961	-93412.6	0.686585	7.90704e+07	18456.8	-4.93398e+06	14.4588	0	0	0	0	0	0	0	0	8.01703e+07	18423.2	-1.02323e+07	0	-64478.1	0.686585	-1224.35	33.6552	3.06955e+06	14.4588
307.039	-93583.6	0.675922	7.90708e+07	18457.4	-4.91486e+06	14.5091	0	0	0	0	0	0	0	0	8.01707e+07	18423.2	-1.02302e+07	0	-64741.7	0.675922	-1263.66	34.1981	3.08694e+06	14.5091
307.118	-93639.6	0.660248	7.90712e+07	18458.1	-4.90249e+06	14.5327	0	0	0	0	0	0	0	0	8.01711e+07	18423.2	-1.02285e+07	0	-64892.9	0.660248	-1307.64	34.9469	3.09813e+06	14.5327
307.197	-93681.9	0.633269	7.90716e+07	18458.8	-4.89111e+06	14.5543	0	0	0	0	0	0	0	0	8.01715e+07	18423.2	-1.02271e+07	0	-65032.8	0.633269	-1356.9	35.6163	3.10888e+06	14.5543
307.275	-93695.7	0.598145	7.90719e+07	18459.5	-4.88168e+06	14.5702	0	0	0	0	0	0	0	0	8.01719e+07	18423.2	-1.02261e+07	0	-65146.7	0.598145	-1411.39	36.2586	3.11821e+06	14.5702
307.354	-93672.7	0.558079	7.90723e+07	18460.1	-4.87458e+06	14.5784	0	0	0	0	0	0	0	0	8.01723e+07	18423.2	-1.02255e+07	0	-65226.2	0.558079	-1471.32	36.8985	3.12573e+06	14.5784
307.433	-93620.1	0.515054	7.90727e+07	18460.7	-4.86942e+06	14.5807	0	0	0	0	0	0	0	0	8.01727e+07	18423.2	-1.02252e+07	0	-65278.4	0.515054	-1537.04	37.5128	3.13183e+06	14.5807
307.511	-93534.1	0.472019	7.90731e+07	18461.3	-4.86641e+06	14.5762	0	0	0	0	0	0	0	0	8.01731e+07	18423.2	-1.02252e+07	0	-65299.6	0.472019	-1608.24	38.1368	3.13627e+06	14.5762
307.59	-93421	0.430427	7.90735e+07	18461.9	-4.86512e+06	14.5662	0	0	0	0	0	0	0	0	8.01735e+07	18423.2	-1.02256e+07	0	-65295.8	0.430427	-1685.68	38.7309	3.13946e+06	14.5662
307.669	-93276.7	0.392303	7.90739e+07	18462.5	-4.86582e+06	14.5499	0	0	0	0	0	0	0	0	8.01739e+07	18423.2	-1.02262e+07	0	-65263	0.392303	-1769.02	39.3326	3.14115e+06	14.5499
307.747	-93103.5	0.357975	7.90742e+07	18463.1	-4.86834e+06	14.5277	0	0	0	0	0	0	0	0	8.01744e+07	18423.2	-1.02271e+07	0	-65203.5	0.357975	-1859.2	39.9032	3.14145e+06	14.5277
307.826	-92896.2	0.32848	7.90746e+07	18463.7	-4.87304e+06	14.4985	0	0	0	0	0	0	0	0	8.01748e+07	18423.2	-1.02283e+07	0	-65112	0.32848	-1955.24	40.5107	3.13999e+06	14.4985
307.905	-92666.1	0.302309	7.9075e+07	18464.3	-4.87908e+06	14.4649	0	0	0	0	0	0	0	0	8.01752e+07	18423.2	-1.02297e+07	0	-64999.6	0.302309	-2058.49	41.073	3.13761e+06	14.4649
307.983	-92395.2	0.27997	7.90754e+07	18464.9	-4.88782e+06	14.4227	0	0	0	0	0	0	0	0	8.01757e+07	18423.2	-1.02313e+07	0	-64848.5	0.27997	-2168.42	41.6715	3.13292e+06	14.4227
308.062	-92106.3	0.259444	7.90757e+07	18465.5	-4.89747e+06	14.3772	0	0	0	0	0	0	0	0	8.01761e+07	18423.2	-1.02331e+07	0	-64681.3	0.259444	-2284.86	42.2584	3.12769e+06	14.3772
308.141	-91782.8	0.240272	7.90761e+07	18466	-4.90932e+06	14.3245	0	0	0	0	0	0	0	0	8.01766e+07	18423.2	-1.02351e+07	0	-64481.3	0.240272	-2408.61	42.8531	3.12059e+06	14.3245
308.219	-91435.3	0.220937	7.90765e+07	18466.6	-4.92256e+06	14.267	0	0	0	0	0	0	0	0	8.0177e+07	18423.2	-1.02372e+07	0	-64259.2	0.220937	-2539.73	43.4304	3.11243e+06	14.267
308.298	-91058.6	0.201262	7.90768e+07	18467.2	-4.9375e+06	14.2036	0	0	0	0	0	0	0	0	8.01775e+07	18423.2	-1.02395e+07	0	-64009.6	0.201262	-2677.92	44.0255	3.10286e+06	14.2036
308.377	-90645.9	0.180768	7.90772e+07	18467.8	-4.95475e+06	14.1326	0	0	0	0	0	0	0	0	8.0178e+07	18423.2	-1.02418e+07	0	-63725.7	0.180768	-2823.98	44.6305	3.09125e+06	14.1326
308.455	-90217.7	0.158652	7.90776e+07	18468.4	-4.97262e+06	14.0588	0	0	0	0	0	0	0	0	8.01784e+07	18423.2	-1.02442e+07	0	-63428	0.158652	-2977.3	45.2204	3.07926e+06	14.0588
308.534	-89753.4	0.136166	7.90779e+07	18469	-4.99276e+06	13.9773	0	0	0	0	0	0	0	0	8.01789e+07	18423.2	-1.02467e+07	0	-63095.7	0.136166	-3138.25	45.8449	3.06522e+06	13.9773
308.613	-89266.7	0.113121	7.90783e+07	18469.6	-5.01402e+06	13.8914	0	0	0	0	0	0	0	0	8.01794e+07	18423.2	-1.02492e+07	0	-62742.6	0.113121	-3307.42	46.4458	3.05024e+06	13.8914
308.691	-88755.7	0.0910015	7.90786e+07	18470.3	-5.03662e+06	13.8006	0	0	0	0	0	0	0	0	8.01799e+07	18423.2	-1.02516e+07	0	-62366.8	0.0910015	-3484.02	47.0695	3.03407e+06	13.8006
308.77	-88215.4	0.0710197	7.90789e+07	18470.9	-5.06084e+06	13.7037	0	0	0	0	0	0	0	0	8.01804e+07	18423.2	-1.02541e+07	0	-61963	0.0710197	-3669.39	47.6775	3.01642e+06	13.7037
308.849	-87626.5	0.0568613	7.90793e+07	18471.6	-5.08763e+06	13.5959	0	0	0	0	0	0	0	0	8.01808e+07	18423.2	-1.02564e+07	0	-61512	0.0568613	-3862.54	48.3696	2.99629e+06	13.5959
308.927	-87080.2	0.0421139	7.90796e+07	18472.1	-5.11238e+06	13.4996	0	0	0	0	0	0	0	0	8.01813e+07	18423.2	-1.02586e+07	0	-61105	0.0421139	-4064.61	48.8615	2.97826e+06	13.4996
309.006	-86448.6	0.0401224	7.90799e+07	18472.8	-5.14108e+06	13.3833	0	0	0	0	0	0	0	0	8.01818e+07	18423.2	-1.02607e+07	0	-60613.9	0.0401224	-4273.75	49.5726	2.9563e+06	13.3833
