# SeaFEM body drift results file v.1.0
DataSets	Body data Auto1
SubSets	Drift
numResults	6
time[s]	Fx_correction[N]	Fy_correction[N]	Fz_correction[N]	Mx_correction[N]	My_correction[N]	Mz_correction[N]
300.038	247.617	0.555653	-288.863	34.3524	-2924.68	0.265057
300.117	248.671	0.708037	-292.463	39.5749	-2952.57	0.238385
300.195	249.465	0.679214	-297.247	37.6382	-2889.58	0.245923
300.274	250.319	0.848682	-300.308	43.2187	-2926.88	0.216266
300.353	250.717	0.635554	-306.356	34.2649	-2767.29	0.259543
300.431	251.432	0.92285	-308.109	44.3028	-2866.82	0.207246
300.51	251.708	0.827483	-312.778	39.8309	-2769.91	0.227512
300.589	252.053	0.949315	-315.549	43.7769	-2786.15	0.205969
300.667	252.108	0.850315	-319.711	39.3183	-2693.5	0.225086
300.746	252.377	1.16189	-320.839	50.9707	-2812.15	0.166468
300.825	252.147	0.935568	-325.43	42.0146	-2659.67	0.207121
300.903	252.12	1.11287	-327.001	48.9381	-2719.23	0.170499
300.982	251.815	1.04938	-330.038	46.8801	-2658.13	0.177648
301.061	251.612	1.22539	-331.081	54.2186	-2727.11	0.137561
301.139	250.894	0.912071	-335.579	43.2638	-2542.88	0.189636
301.218	250.581	1.22363	-335.182	56.1507	-2690.59	0.120874
301.297	249.769	1.05223	-338.156	50.7716	-2585.86	0.144025
301.375	249.068	1.158	-338.983	55.9713	-2625.41	0.114118
301.454	248.032	0.990434	-341.462	50.5315	-2524.71	0.136464
301.533	247.301	1.35527	-340.414	65.4286	-2695.05	0.0588685
301.611	245.971	1.04856	-343.487	54.3223	-2514.7	0.109579
301.69	244.926	1.26839	-343.068	63.1777	-2607.27	0.0612008
301.769	243.564	1.19643	-344.39	60.6857	-2544.06	0.0695931
301.847	242.363	1.44159	-343.513	70.0912	-2643.29	0.0181266
301.926	240.555	1.07965	-346.5	56.3311	-2424.72	0.0844236
302.005	239.278	1.51582	-344.124	72.6492	-2620.36	-0.0023108
302.083	237.418	1.34806	-345.518	65.9172	-2498.39	0.0283342
302.162	235.725	1.53176	-344.563	72.3657	-2558.23	-0.00806046
302.241	233.648	1.36962	-345.523	65.4851	-2438.55	0.0227112
302.319	232.014	1.88013	-342.568	84.3025	-2656.35	-0.074823
302.398	229.625	1.52863	-344.275	70.0144	-2438.17	-0.00695603
302.477	227.664	1.83927	-342.161	81.1409	-2554.66	-0.0665431
302.555	225.325	1.76837	-342.016	77.7891	-2478.18	-0.0532619
302.634	223.061	1.90614	-340.553	82.5364	-2510.31	-0.0813455
302.713	220.533	1.82409	-340.088	79.0966	-2433.37	-0.0682529
302.791	218.236	2.14232	-337.456	91.1504	-2559.96	-0.133543
302.87	215.457	1.93241	-337.319	83.2996	-2420.68	-0.0981966
302.949	212.888	2.11669	-335.039	90.5681	-2486.39	-0.140447
303.027	210.073	2.0687	-333.839	89.3456	-2429.6	-0.138438
303.106	207.358	2.25289	-331.258	96.8764	-2498.81	-0.183101
303.185	204.18	1.96148	-331.058	86.8543	-2322.32	-0.135422
303.263	201.41	2.27861	-327.591	99.727	-2457.84	-0.207938
303.342	198.179	2.12129	-326.409	94.8942	-2353.09	-0.188133
303.421	195.087	2.23081	-323.825	100.164	-2381.79	-0.221065
303.499	191.689	2.06978	-322.397	95.2207	-2274.96	-0.201198
303.578	188.649	2.42361	-318.644	109.703	-2417.11	-0.28159
303.657	184.999	2.11773	-317.674	99.0866	-2234.55	-0.232607
303.735	181.693	2.32264	-314.456	107.622	-2298.1	-0.282846
303.814	178.076	2.24034	-312.4	105.09	-2219.39	-0.27598
303.893	174.665	2.46444	-309.022	113.966	-2283.04	-0.328349
303.971	170.685	2.10129	-308.102	100.75	-2054.84	-0.264053
304.05	167.261	2.50522	-303.891	115.949	-2202.16	-0.350593
304.129	163.29	2.32437	-302.075	109.203	-2058.89	-0.32083
304.207	159.538	2.48064	-298.866	114.952	-2076.18	-0.357099
304.286	155.572	2.44942	-296.365	113.592	-1999.87	-0.355752
304.365	151.728	2.61734	-293.062	119.565	-2017.34	-0.393493
304.443	147.501	2.39388	-291.241	110.995	-1842.19	-0.353209
304.522	143.649	2.67771	-287.469	121.212	-1910.36	-0.413652
304.601	139.417	2.56844	-285.125	116.824	-1789.32	-0.396146
304.679	135.325	2.67817	-281.952	120.599	-1773.23	-0.422612
304.758	131	2.56222	-279.566	116.152	-1647.12	-0.404526
304.837	127.018	2.86409	-275.749	127.388	-1714.24	-0.470095
304.915	122.502	2.61442	-273.71	118.078	-1531.91	-0.427038
304.994	118.341	2.77788	-270.338	124.414	-1534.87	-0.466593
305.073	113.928	2.69749	-267.721	121.718	-1428.47	-0.458351
305.151	109.605	2.74599	-264.693	123.898	-1380.91	-0.476282
305.23	105.129	2.65862	-262.091	121.087	-1270.99	-0.467366
305.309	100.869	2.81736	-258.756	127.491	-1267.57	-0.50754
305.387	96.2768	2.65495	-256.389	121.878	-1123	-0.48368
305.466	91.884	2.73431	-253.318	125.188	-1084.76	-0.507918
305.545	87.3499	2.67619	-250.693	123.417	-980.28	-0.504083
305.623	82.9229	2.76165	-247.69	126.83	-939.667	-0.528637
305.702	78.2079	2.56129	-245.462	119.558	-771.218	-0.495456
305.781	73.8179	2.73359	-242.316	125.982	-764.18	-0.536166
305.859	69.1487	2.62114	-239.932	121.747	-630.645	-0.519168
305.938	64.6265	2.67248	-237.177	123.468	-566.011	-0.53428
306.017	59.9374	2.56247	-234.877	119.104	-431.492	-0.516369
306.095	55.5602	2.75771	-231.827	125.964	-422.604	-0.559167
306.174	50.7967	2.55998	-229.834	118.261	-249.202	-0.522727
306.253	46.3372	2.65868	-227.126	121.486	-200.061	-0.545805
306.331	41.715	2.58366	-224.88	118.341	-79.3103	-0.534138
306.41	37.2063	2.59989	-222.468	118.701	4.57676	-0.541084
306.489	32.5985	2.51595	-220.322	115.405	124.433	-0.528597
306.567	28.197	2.59988	-217.789	118.473	177.835	-0.550487
306.646	23.5711	2.45585	-215.87	113.25	318.015	-0.527169
306.725	19.1536	2.47588	-213.596	114.238	393.763	-0.537356
306.803	14.6493	2.3949	-211.589	111.543	505.719	-0.527721
306.882	10.2302	2.36389	-209.519	110.741	597.058	-0.528314
306.961	5.79218	2.28096	-207.639	108.073	709.032	-0.518236
307.039	1.47592	2.28668	-205.537	108.495	783.659	-0.526031
307.118	-2.9136	2.17993	-203.842	104.85	905.149	-0.510102
307.197	-7.18365	2.16058	-201.947	104.154	989.987	-0.511323
307.275	-11.5027	2.05972	-200.333	100.369	1107.66	-0.494875
307.354	-15.6099	2.11831	-198.361	102.182	1165.75	-0.509748
307.433	-19.8963	1.98014	-196.957	96.6788	1297.3	-0.483537
307.511	-23.9675	1.99701	-195.24	96.6694	1371.95	-0.487685
307.59	-28.1671	1.86424	-193.913	91.0562	1500.47	-0.460603
307.669	-31.9994	2.01651	-192.002	95.7385	1524.61	-0.490599
307.747	-36.1856	1.80376	-190.948	87.1132	1679.77	-0.446147
307.826	-40.0082	1.86671	-189.348	88.5065	1732.01	-0.457431
307.905	-43.9498	1.76977	-188.113	84.1442	1839.87	-0.436342
307.983	-47.6361	1.83149	-186.657	85.7439	1890.6	-0.44739
308.062	-51.6446	1.57134	-185.71	75.4725	2045.48	-0.394255
308.141	-55.0971	1.71825	-184.21	80.4038	2060.44	-0.423109
308.219	-58.8631	1.54683	-183.223	73.6603	2179.03	-0.388382
308.298	-62.3432	1.55103	-181.997	73.4804	2235.86	-0.389233
308.377	-65.9812	1.37413	-181.112	66.6457	2346.91	-0.353882
308.455	-69.1151	1.53406	-179.664	72.3556	2351.94	-0.386244
308.534	-72.7433	1.25674	-179.018	61.8505	2485.98	-0.331001
308.613	-75.86	1.31114	-177.834	63.6908	2518.3	-0.342148
308.691	-79.1553	1.17676	-176.994	58.506	2604.03	-0.315373
308.77	-82.124	1.23407	-175.888	60.422	2629.82	-0.326856
308.849	-85.5024	0.919539	-175.344	48.4772	2763.1	-0.263597
308.927	-88.1715	1.08756	-174.135	54.3841	2751.22	-0.296568
309.006	-91.2449	0.888751	-173.487	46.6568	2845.18	-0.255624
309.085	-93.9518	0.900569	-172.544	46.6715	2875.48	-0.256435
309.163	-96.8522	0.705055	-171.959	38.9785	2961.95	-0.215192
309.242	-99.1425	0.905546	-170.707	45.8446	2934.23	-0.253211
309.321	-102.024	0.597749	-170.347	34.0287	3045.4	-0.188945
309.399	-104.289	0.677323	-169.335	36.5123	3046.95	-0.202292
309.478	-106.777	0.53583	-168.697	30.8905	3104.75	-0.171346
309.557	-108.864	0.616991	-167.709	33.595	3101.37	-0.185006
309.635	-111.479	0.263534	-167.389	20.1972	3205.12	-0.111873
309.714	-113.21	0.470038	-166.212	27.617	3164.44	-0.150404
309.793	-115.47	0.249116	-165.699	19.211	3228.26	-0.103414
309.871	-117.282	0.272313	-164.795	19.8343	3229.25	-0.104835
309.95	-119.359	0.0551766	-164.287	11.4904	3284.32	-0.0578635
310.029	-120.67	0.300799	-162.984	20.2785	3230.4	-0.102812
310.107	-122.768	-0.0439795	-162.683	7.12823	3308.1	-0.0297149
310.186	-124.082	0.0661392	-161.598	10.8736	3283.61	-0.0467606
310.265	-125.716	-0.0793648	-160.929	5.03085	3309.7	-0.0129023
310.343	-126.857	0.0358927	-159.802	8.93915	3280.02	-0.0307132
310.422	-128.673	-0.34655	-159.508	-5.67989	3350.21	0.0505117
310.501	-129.403	-0.0842173	-158.088	3.66589	3286.56	0.00371244
310.579	-130.814	-0.311663	-157.493	-5.15489	3319.5	0.054235
310.658	-131.689	-0.260043	-156.384	-3.62192	3294.73	0.0493569
310.737	-132.908	-0.483973	-155.745	-12.3194	3319.96	0.0992804
310.815	-133.199	-0.179867	-154.119	-1.36416	3246.53	0.0443921
310.894	-134.492	-0.553059	-153.694	-15.5326	3292.65	0.123691
310.973	-134.842	-0.408021	-152.289	-10.404	3246.23	0.100309
311.051	-135.601	-0.555448	-151.391	-16.1167	3247	0.134677
311.13	-135.781	-0.406074	-149.892	-10.6899	3199.98	0.110266
311.209	-136.841	-0.82595	-149.457	-26.5453	3234.43	0.198174
311.287	-136.558	-0.508782	-147.558	-14.8159	3162.38	0.140885
311.366	-137.173	-0.750332	-146.711	-23.9518	3167.04	0.193744
311.445	-137.146	-0.673137	-145.2	-21.1814	3127.24	0.183958
311.523	-137.588	-0.9088	-144.27	-30.0967	3126.78	0.235992
311.602	-136.912	-0.543971	-142.115	-16.5919	3049.62	0.169728
311.681	-137.522	-0.948401	-141.438	-31.7087	3065.54	0.254795
311.759	-136.998	-0.764397	-139.544	-24.8464	3011.7	0.224072
311.838	-137.01	-0.911864	-138.279	-30.2599	2994.28	0.258332
311.917	-136.351	-0.725084	-136.255	-23.1418	2942.85	0.226614
311.995	-136.795	-1.17963	-135.59	-40.0162	2945.04	0.320537
312.074	-135.618	-0.804283	-133.065	-25.7656	2881.25	0.251976
312.153	-135.571	-1.05775	-131.876	-35.0631	2864.35	0.306404
312.231	-134.759	-0.952403	-129.86	-30.939	2822.21	0.290793
312.31	-134.557	-1.19861	-128.571	-40.0653	2800.36	0.344006
312.389	-132.981	-0.767352	-125.779	-23.7362	2743.12	0.265108
312.467	-133.047	-1.20123	-124.817	-39.8717	2728.48	0.35484
312.546	-131.732	-0.972743	-122.366	-31.1944	2683.97	0.315453
312.625	-131.118	-1.11563	-120.702	-36.3872	2653.99	0.348282
312.703	-129.705	-0.883714	-118.116	-27.4527	2616.79	0.307859
312.782	-129.67	-1.36613	-117.213	-45.3085	2587.22	0.406292
312.861	-127.703	-0.926657	-114.047	-28.5644	2552.52	0.325312
312.939	-127.145	-1.18703	-112.528	-38.0014	2519.01	0.380047
313.018	-125.694	-1.05133	-110.022	-32.554	2488.48	0.357734
313.097	-125.015	-1.30661	-108.406	-41.7632	2451.74	0.411148
313.175	-122.699	-0.814303	-105.012	-22.7738	2435.94	0.319544
313.254	-122.434	-1.28238	-103.821	-39.8618	2389.31	0.413361
313.333	-120.504	-1.01802	-100.876	-29.3475	2373.13	0.365517
313.411	-119.472	-1.16604	-98.8877	-34.3061	2337.06	0.397079
313.49	-117.872	-1.08221	-96.3074	-30.4762	2317.71	0.383988
313.569	-116.767	-1.22729	-94.2559	-35.3689	2279.7	0.414909
313.647	-114.618	-0.93306	-91.1622	-23.6084	2281.09	0.361443
313.726	-113.763	-1.19868	-89.3428	-33.0251	2232.59	0.415573
313.805	-111.859	-1.03453	-86.5023	-26.2385	2227.44	0.387305
313.883	-110.513	-1.10934	-84.2193	-28.4742	2197.45	0.405031
313.962	-108.577	-0.941326	-81.2985	-21.5407	2201.47	0.376173
314.041	-107.697	-1.23074	-79.5858	-31.8816	2138.78	0.435304
314.119	-105.381	-0.927936	-76.2981	-19.9627	2168.23	0.380793
314.198	-104.14	-1.07187	-74.1711	-24.8393	2127.45	0.411942
314.277	-102.248	-0.962554	-71.3915	-20.1898	2131.11	0.394475
314.355	-100.967	-1.10186	-69.2178	-24.9379	2089.33	0.424438
314.434	-98.4449	-0.765254	-65.9175	-11.5773	2145.29	0.363391
314.513	-97.5334	-1.03991	-64.0541	-21.3963	2074.29	0.418419
314.591	-95.3683	-0.849099	-61.0963	-13.5313	2107.35	0.384644
314.67	-93.9162	-0.920012	-58.7716	-15.5725	2080.6	0.400436
314.749	-113.475	104.338	-52.4197	6007.74	5261.73	407.687
314.827	-62.661	-138.062	-58.6189	-7773.7	-2131.51	-535.367
314.906	-95.0736	33.0806	-49.5974	1913.99	3177.55	132.436
314.985	-87.5282	-1.0886	-48.8652	-13.6924	2046.27	0.425111
315.063	-85.1226	-0.696233	-45.9513	-2.96517	2122.68	0.372969
315.142	-83.8289	-0.699478	-43.7579	-6.33028	2085.78	0.390202
315.221	-81.8762	-0.521636	-41.1745	-1.83926	2118.53	0.36928
315.299	-80.5146	-0.57871	-39.0436	-5.20729	2078.55	0.388276
315.378	-77.9361	-0.274982	-36.1407	6.49041	2189.97	0.334195
315.457	-76.9542	-0.507421	-34.295	-1.17055	2104.85	0.376185
315.535	-74.7866	-0.379119	-31.7028	5.87189	2177.33	0.346364
315.614	-73.3623	-0.482525	-29.5872	4.65859	2159.58	0.35751
315.693	-71.3389	-0.377604	-27.0699	11.5821	2241.13	0.328049
315.771	-70.6432	-0.677971	-25.4755	3.00246	2126.85	0.375207
315.85	-68.3256	-0.445431	-22.7959	14.3657	2274.44	0.3233
315.929	-67.3329	-0.598363	-20.9925	10.6025	2220.2	0.345836
316.007	-65.6062	-0.514521	-18.7969	15.3558	2285.46	0.326161
316.086	-64.6277	-0.640025	-17.0505	11.6089	2227.12	0.348013
316.165	-62.1651	-0.333822	-14.6707	24.0364	2415.24	0.290898
316.243	-61.6195	-0.562134	-13.1911	15.7296	2283.18	0.335216
316.322	-59.5854	-0.375174	-11.1432	23.1351	2403.26	0.302728
316.401	-58.4122	-0.418385	-9.51294	21.6359	2376.48	0.313579
316.479	-56.4325	-0.232876	-7.57993	28.9305	2507.97	0.281578
316.558	-56.0772	-0.482642	-6.34661	19.6038	2332	0.330594
316.637	-53.7118	-0.179638	-4.42062	31.4066	2558.61	0.27574
316.715	-52.9949	-0.299505	-3.0894	27.1489	2474.02	0.299384
316.794	-51.4244	-0.185572	-1.55559	31.8503	2571.17	0.278994
316.873	-50.4272	-0.203036	-0.224331	31.5343	2565.32	0.282948
316.951	-48.9777	-0.0920417	1.14819	36.0827	2668.74	0.263043
317.03	-48.5266	-0.221759	2.27179	31.3715	2559.98	0.28857
317.109	-46.8522	-0.0387579	3.53617	38.4068	2729.59	0.256422
317.188	-46.1723	-0.0880099	4.59529	36.446	2683.73	0.268288
317.266	-44.9555	-0.00343754	5.63316	39.4506	2763.01	0.255792
317.345	-44.3326	-0.0489933	6.58489	37.3799	2711.47	0.267738
317.424	-42.6074	0.152539	7.46034	44.8444	2918.46	0.233608
317.502	-42.3962	0.02944	8.30424	39.9536	2787.89	0.258836
317.581	-41.0941	0.140392	9.01807	44.2859	2919.56	0.239412
317.66	-40.4803	0.105924	9.70979	43.3438	2898.98	0.245324
317.738	-39.289	0.192733	10.2369	47.3939	3035.97	0.226963
317.817	-39.3407	0.0207971	10.9416	41.8863	2866.11	0.255024
317.896	-37.8764	0.158282	11.229	48.4126	3095.74	0.224441
317.974	-37.656	0.0502014	11.7307	45.6861	3014.9	0.238638
318.053	-36.78	0.0751416	11.9997	48.0467	3113.65	0.228107
318.132	-36.6453	-0.0311838	12.3901	45.1872	3022.98	0.242293
318.21	-35.1571	0.120904	12.2992	52.0364	3303.45	0.209834
318.289	-35.5111	-0.0446847	12.7358	46.3186	3098.79	0.237171
318.368	-34.5147	0.0423261	12.6164	49.9613	3269	0.219411
318.446	-34.3395	-0.000396965	12.7463	48.2657	3221.6	0.226961
318.525	-33.4177	0.0954427	12.4549	51.6215	3397.29	0.210214
318.604	-34.0421	-0.0542343	12.8759	45.3021	3137.83	0.239571
318.682	-32.7339	0.116111	12.2071	51.1308	3442.73	0.210803
318.761	-32.9635	0.0468827	12.3181	47.6581	3309.36	0.226465
318.84	-32.3705	0.110363	11.8807	49.244	3427.78	0.217923
318.918	-32.6765	0.041089	11.9269	45.6756	3280.86	0.233762
318.997	-31.324	0.218884	10.8609	51.6062	3652.41	0.204399
319.076	-32.209	0.0775547	11.1901	45.2258	3346.06	0.233286
319.154	-31.4411	0.173881	10.3197	47.9568	3561.99	0.218668
319.233	-31.6612	0.13605	10.1282	45.481	3475.24	0.228529
319.312	-31.3657	0.169052	9.47123	45.7094	3558.44	0.225368
319.39	-31.6396	0.127422	9.24	43.0662	3458.87	0.235618
319.469	-30.8575	0.218179	8.09151	45.57	3716.19	0.221508
319.548	-31.4916	0.129622	8.08248	41.2938	3505.01	0.239356
319.626	-31.0672	0.165098	7.14724	41.9448	3653.42	0.234011
319.705	-31.2734	0.121159	6.73584	39.707	3592.76	0.242191
319.784	-30.8686	0.13882	5.70016	40.0537	3741.81	0.238368
319.862	-31.711	0.0221586	5.88933	35.3059	3482.93	0.257806
319.941	-30.9683	0.061787	4.4608	36.7819	3749.84	0.248547
320.02	-31.4495	-0.0231765	4.27411	33.4361	3607.29	0.261164
320.098	-31.2616	-0.0436459	3.34061	32.592	3698.19	0.262063
320.177	-31.7493	-0.128327	3.19181	29.1696	3540.73	0.274515
320.256	-30.9384	-0.091755	1.57838	30.2797	3867.54	0.26599
320.334	-31.8171	-0.204659	1.89942	25.4537	3559.57	0.284419
320.413	-31.3966	-0.201452	0.729163	24.9106	3737.63	0.283212
320.492	-31.7123	-0.256401	0.449786	21.8817	3633.71	0.293077
320.57	-31.2388	-0.250005	-0.71715	21.0654	3812.13	0.293204
320.649	-32.3007	-0.346286	-0.0863971	15.9263	3441.68	0.311711
320.728	-31.3404	-0.306865	-1.755	16.0395	3778.03	0.307756
320.806	-31.8766	-0.363508	-1.57221	12.1324	3564.2	0.320707
320.885	-31.5453	-0.366002	-2.40835	10.2776	3664.25	0.32488
320.964	-32.032	-0.417601	-2.13072	6.38617	3430.53	0.337361
321.042	-30.8987	-0.380272	-3.91085	5.93962	3846.12	0.335527
321.121	-31.8199	-0.456936	-2.90585	1.02092	3411.51	0.351924
321.2	-31.1354	-0.455017	-3.98709	-0.742878	3627.26	0.35563
321.278	-31.341	-0.500161	-3.76511	-4.33409	3466.09	0.366486
321.357	-30.5566	-0.511109	-4.78232	-6.38125	3681.94	0.371979
321.436	-31.6737	-0.594818	-3.26581	-11.4308	3165.22	0.387642
321.514	-30.2576	-0.600259	-4.91401	-12.9515	3591.33	0.391994
321.593	-30.6815	-0.669179	-4.0112	-17.1209	3284.15	0.404717
321.672	-30.0106	-0.712786	-4.45711	-20.0467	3394.74	0.413859
321.75	-30.3252	-0.784035	-3.42223	-24.0848	3062.52	0.425652
321.829	-28.6252	-0.819566	-5.09448	-26.4983	3590.07	0.43434
321.908	-29.4158	-0.902252	-3.06303	-30.9664	2992.75	0.446119
321.986	-28.2165	-0.957058	-3.78606	-34.1159	3255.17	0.456528
322.065	-28.0809	-1.02477	-2.80302	-37.9882	3020.02	0.466905
322.144	-26.7022	-1.08537	-3.38234	-41.4182	3281.98	0.478695
322.222	-27.6478	-1.14979	-0.742021	-45.6294	2578	0.48623
322.301	-25.4483	-1.2116	-2.10516	-49.1366	3116.83	0.500549
322.38	-25.4944	-1.26585	-0.249407	-53.0246	2690.03	0.508582
322.458	-24.185	-1.32631	-0.136242	-56.9204	2812.75	0.5213
322.537	-23.5211	-1.37874	1.11267	-60.7826	2618.1	0.530949
322.616	-13.8427	-6.85662	-0.153146	-1184.19	2432.62	-301.662
322.694	-33.8003	9.60014	6.00741	1678.42	2621.3	406.886
322.773	-16.429	-5.17606	2.56973	-535.978	2571.59	-101.829
322.852	-19.7042	-1.80519	5.8828	-77.1353	2076.35	0.569175
322.93	-17.5304	-1.84485	6.10752	-81.5673	2317.45	0.583509
323.009	-16.6832	-1.83358	8.0367	-85.1027	2011.71	0.587491
323.088	-14.388	-1.86529	8.40512	-89.9148	2265.55	0.604941
323.166	-14.6527	-1.8025	11.9817	-91.9586	1424.16	0.596717
323.245	-11.4366	-1.87668	11.6128	-97.8534	1991.7	0.625205
323.324	-10.6587	-1.84855	14.3719	-100.512	1463.34	0.625529
323.402	-8.40589	-1.89571	15.4789	-105.246	1558.04	0.644087
323.481	-7.40055	-1.87241	18.4026	-107.444	995.118	0.642492
323.56	-3.80288	-2.0216	18.0749	-115.045	1701.43	0.682885
323.638	-3.36063	-1.95973	22.0832	-115.373	749.671	0.667007
323.717	-0.3786	-2.08198	22.9288	-121.479	1061.77	0.695229
323.796	1.27021	-2.10615	25.6586	-124.119	643.743	0.696632
323.874	4.51392	-2.25177	26.6948	-130.479	953.192	0.726526
323.953	4.8028	-2.1706	31.0222	-129.325	-149.934	0.698552
324.032	9.12015	-2.39998	31.2813	-138.099	562.165	0.746564
324.11	10.5926	-2.3862	34.7271	-138.906	-133.706	0.733947
324.189	13.7958	-2.51903	36.4868	-144.47	-30.7329	0.756839
324.268	16.1857	-2.56425	39.2191	-147.139	-386.944	0.75806
324.346	19.6243	-2.70047	41.1416	-152.846	-287.583	0.781225
324.425	21.202	-2.6484	44.7	-152.454	-1077.56	0.758491
324.504	25.3781	-2.83579	46.2287	-159.94	-729.414	0.794036
324.582	27.7782	-2.82605	49.3774	-161.082	-1268.89	0.781967
324.661	31.2885	-2.92575	51.6556	-165.897	-1306.96	0.79672
324.74	33.9297	-2.89552	54.8363	-166.446	-1877.36	0.780483
324.818	38.4376	-3.1143	56.4212	-175.475	-1426.03	0.824687
324.897	40.7405	-2.99677	60.0683	-173.148	-2311.45	0.788256
324.976	44.8709	-3.13826	62.1987	-179.511	-2181.66	0.814227
325.054	48.0611	-3.12616	65.1606	-180.663	-2639.47	0.803266
325.133	52.4269	-3.27614	67.4697	-187.142	-2516.53	0.830851
325.212	54.6136	-3.10751	70.8634	-182.859	-3522.11	0.78176
325.29	59.7766	-3.35776	72.8873	-192.411	-3081.1	0.832433
325.369	62.844	-3.27981	75.9375	-190.95	-3763.32	0.804277
325.448	67.174	-3.3922	78.379	-195.752	-3809.24	0.821545
325.526	70.4365	-3.29487	81.3669	-193.545	-4521.61	0.78881
325.605	75.8875	-3.60293	83.3708	-205.054	-3954.83	0.853576
325.684	78.6681	-3.36363	86.4384	-198.216	-5053.51	0.788731
325.762	83.5757	-3.5367	88.7456	-205.428	-4885.23	0.823287
325.841	87.3408	-3.4566	91.4031	-204.326	-5446.35	0.798668
325.92	92.4306	-3.62452	93.7908	-211.631	-5280.31	0.834365
