time[s]	Surge [m]	Sway [m]	Heave [m]	Roll [rad]	Pitch [rad]	Yaw [rad]	
0.0786675	0	0	0	0	0	0
0.157335	-1.67454e-05	0	1.87561e-06	0	-2.14556e-07	0
0.236003	-6.68935e-05	0	7.50828e-06	0	-8.57367e-07	0
0.31467	-0.000150303	0	1.68968e-05	0	-1.92703e-06	0
0.393338	-0.000266813	0	3.00374e-05	0	-3.42191e-06	0
0.472005	-0.000416248	0	4.69246e-05	0	-5.34019e-06	0
0.550673	-0.000598419	0	6.75493e-05	0	-7.67984e-06	0
0.62934	-0.000813122	0	9.18989e-05	0	-1.04387e-05	0
0.708008	-0.00106014	0	0.000119963	0	-1.36143e-05	0
0.786675	-0.00133924	0	0.000151727	0	-1.72042e-05	0
0.865343	-0.00165017	0	0.000187179	0	-2.12055e-05	0
0.94401	-0.00199267	0	0.000226312	0	-2.56154e-05	0
1.02268	-0.00236648	0	0.000269103	0	-3.04307e-05	0
1.10134	-0.0027713	0	0.000315542	0	-3.56482e-05	0
1.18001	-0.00320684	0	0.000365609	0	-4.12644e-05	0
1.25868	-0.00367277	0	0.000419286	0	-4.72756e-05	0
1.33735	-0.00416878	0	0.000476554	0	-5.36782e-05	0
1.41601	-0.00469452	0	0.000537394	0	-6.04681e-05	0
1.49468	-0.00524964	0	0.000601787	0	-6.76411e-05	0
1.57335	-0.00583377	0	0.000669711	0	-7.5193e-05	0
1.65202	-0.00644654	0	0.000741144	0	-8.31194e-05	0
1.73068	-0.00708755	0	0.000816066	0	-9.14156e-05	0
1.80935	-0.0077564	0	0.000894449	0	-0.000100077	0
1.88802	-0.00845267	0	0.000976264	0	-0.000109098	0
1.96669	-0.00917595	0	0.0010615	0	-0.000118474	0
2.04535	-0.00992583	0	0.00115011	0	-0.000128201	0
2.12402	-0.0107019	0	0.00124208	0	-0.000138272	0
2.20269	-0.0115037	0	0.00133737	0	-0.000148685	0
2.28136	-0.0123309	0	0.00143596	0	-0.000159431	0
2.36002	-0.0131828	0	0.00153781	0	-0.000170507	0
2.43869	-0.0140591	0	0.0016429	0	-0.000181906	0
2.51736	-0.0149592	0	0.00175119	0	-0.000193621	0
2.59603	-0.0158826	0	0.00186265	0	-0.000205647	0
2.67469	-0.0168288	0	0.00197726	0	-0.000217977	0
2.75336	-0.0177972	0	0.00209496	0	-0.000230606	0
2.83203	-0.0187873	0	0.00221573	0	-0.000243525	0
2.9107	-0.0197986	0	0.00233954	0	-0.000256729	0
2.98936	-0.0208305	0	0.00246634	0	-0.00027021	0
3.06803	-0.0218825	0	0.0025961	0	-0.000283962	0
3.1467	-0.0229538	0	0.00272878	0	-0.000297978	0
3.22537	-0.024044	0	0.00286339	0	-0.00031225	0
3.30403	-0.0251525	0	0.00300179	0	-0.000326771	0
3.3827	-0.0262787	0	0.003143	0	-0.000341534	0
3.46137	-0.0274219	0	0.00328698	0	-0.000356531	0
3.54004	-0.0285816	0	0.00343368	0	-0.000371756	0
3.6187	-0.0297572	0	0.00358307	0	-0.000387199	0
3.69737	-0.0309479	0	0.00373509	0	-0.000402854	0
3.77604	-0.0321532	0	0.00388972	0	-0.000418712	0
3.85471	-0.0333725	0	0.00404867	0	-0.000434767	0
3.93337	-0.0346051	0	0.00420775	0	-0.000451009	0
4.01204	-0.0358504	0	0.00436987	0	-0.000467432	0
4.09071	-0.0371078	0	0.0045344	0	-0.000484026	0
4.16938	-0.0383766	0	0.0047013	0	-0.000500785	0
4.24804	-0.0396561	0	0.0048705	0	-0.0005177	0
4.32671	-0.0409457	0	0.00504198	0	-0.000534763	0
4.40538	-0.0422449	0	0.00521472	0	-0.000551965	0
4.48405	-0.0435528	0	0.00538998	0	-0.000569299	0
4.56271	-0.0448689	0	0.00556796	0	-0.000586757	0
4.64138	-0.0461926	0	0.0057492	0	-0.00060433	0
4.72005	-0.0475232	0	0.00593067	0	-0.00062201	0
4.79872	-0.04886	0	0.0061147	0	-0.00063979	0
4.87738	-0.0502024	0	0.00630183	0	-0.00065766	0
4.95605	-0.0515498	0	0.00648964	0	-0.000675612	0
5.03472	-0.0529015	0	0.0066783	0	-0.000693639	0
5.11339	-0.0542569	0	0.00686967	0	-0.000711732	0
5.19205	-0.0556153	0	0.00706275	0	-0.000729883	0
5.27072	-0.0569761	0	0.00725688	0	-0.000748084	0
5.34939	-0.0583387	0	0.00745321	0	-0.000766326	0
5.42806	-0.0597025	0	0.00765227	0	-0.000784602	0
5.50672	-0.0610667	0	0.00785103	0	-0.000802903	0
5.58539	-0.0624308	0	0.00805207	0	-0.000821221	0
5.66406	-0.0637941	0	0.00825366	0	-0.000839548	0
5.74273	-0.0651561	0	0.00845777	0	-0.000857875	0
5.82139	-0.066516	0	0.00866256	0	-0.000876196	0
5.90006	-0.0678733	0	0.00886858	0	-0.0008945	0
5.97873	-0.0692273	0	0.00907576	0	-0.000912782	0
6.0574	-0.0705774	0	0.0092831	0	-0.000931031	0
6.13606	-0.071923	0	0.00949366	0	-0.000949241	0
6.21473	-0.0732634	0	0.00970402	0	-0.000967403	0
6.2934	-0.0745981	0	0.00991535	0	-0.000985509	0
6.37207	-0.0759264	0	0.0101276	0	-0.00100355	0
6.45073	-0.0772477	0	0.01034	0	-0.00102152	0
6.5294	-0.0785613	0	0.0105541	0	-0.00103941	0
6.60807	-0.0798667	0	0.0107687	0	-0.00105721	0
6.68674	-0.0811632	0	0.0109846	0	-0.00107492	0
6.7654	-0.0824502	0	0.0112005	0	-0.00109252	0
6.84407	-0.0837272	0	0.0114164	0	-0.00111001	0
6.92274	-0.0849933	0	0.0116337	0	-0.00112738	0
7.00141	-0.0862482	0	0.0118506	0	-0.00114462	0
7.08007	-0.0874911	0	0.0120685	0	-0.00116173	0
7.15874	-0.0887214	0	0.0122879	0	-0.00117869	0
7.23741	-0.0899386	0	0.0125065	0	-0.00119551	0
7.31608	-0.091142	0	0.0127243	0	-0.00121216	0
7.39474	-0.0923311	0	0.0129427	0	-0.00122865	0
7.47341	-0.0935051	0	0.0131625	0	-0.00124496	0
7.55208	-0.0946636	0	0.0133817	0	-0.0012611	0
7.63075	-0.095806	0	0.0136012	0	-0.00127704	0
7.70941	-0.0969317	0	0.0138204	0	-0.00129279	0
7.78808	-0.0980401	0	0.0140395	0	-0.00130833	0
7.86675	-0.0991307	0	0.0142584	0	-0.00132366	0
7.94542	-0.100203	0	0.0144772	0	-0.00133878	0
8.02408	-0.101256	0	0.0146947	0	-0.00135367	0
8.10275	-0.10229	0	0.014914	0	-0.00136833	0
8.18142	-0.103304	0	0.0151318	0	-0.00138275	0
8.26009	-0.104297	0	0.0153491	0	-0.00139693	0
8.33875	-0.10527	0	0.0155654	0	-0.00141086	0
8.41742	-0.106221	0	0.0157819	0	-0.00142453	0
8.49609	-0.10715	0	0.0159975	0	-0.00143794	0
8.57476	-0.108056	0	0.0162131	0	-0.00145108	0
8.65342	-0.10894	0	0.0164273	0	-0.00146394	0
8.73209	-0.109801	0	0.0166402	0	-0.00147653	0
8.81076	-0.110639	0	0.0168518	0	-0.00148883	0
8.88943	-0.111452	0	0.0170646	0	-0.00150084	0
8.96809	-0.112241	0	0.0172747	0	-0.00151256	0
9.04676	-0.113006	0	0.0174843	0	-0.00152398	0
9.12543	-0.113745	0	0.0176934	0	-0.00153509	0
9.2041	-0.11446	0	0.017901	0	-0.0015459	0
9.28276	-0.115149	0	0.0181066	0	-0.0015564	0
9.36143	-0.115812	0	0.0183114	0	-0.00156658	0
9.4401	-0.116449	0	0.018515	0	-0.00157644	0
9.51877	-0.11706	0	0.0187171	0	-0.00158598	0
9.59743	-0.117645	0	0.0189173	0	-0.0015952	0
9.6761	-0.118203	0	0.0191183	0	-0.00160409	0
9.75477	-0.118735	0	0.019315	0	-0.00161265	0
9.83344	-0.11924	0	0.019511	0	-0.00162087	0
9.9121	-0.119718	0	0.0197054	0	-0.00162877	0
9.99077	-0.120169	0	0.0198976	0	-0.00163632	0
10.0694	-0.120593	0	0.0200897	0	-0.00164354	0
10.1481	-0.12099	0	0.0202782	0	-0.00165042	0
10.2268	-0.121359	0	0.0204655	0	-0.00165696	0
10.3054	-0.121702	0	0.0206499	0	-0.00166316	0
10.3841	-0.122017	0	0.0208334	0	-0.00166901	0
10.4628	-0.122305	0	0.021016	0	-0.00167452	0
10.5414	-0.122566	0	0.0211954	0	-0.00167969	0
10.6201	-0.122799	0	0.0213728	0	-0.00168451	0
10.6988	-0.123006	0	0.021548	0	-0.00168899	0
10.7774	-0.123185	0	0.0217211	0	-0.00169311	0
10.8561	-0.123337	0	0.021892	0	-0.0016969	0
10.9348	-0.123462	0	0.0220607	0	-0.00170033	0
11.0134	-0.12356	0	0.0222272	0	-0.00170342	0
11.0921	-0.123631	0	0.0223913	0	-0.00170616	0
11.1708	-0.123675	0	0.0225532	0	-0.00170856	0
11.2495	-0.123692	0	0.022712	0	-0.00171061	0
11.3281	-0.123682	0	0.0228692	0	-0.00171231	0
11.4068	-0.123646	0	0.0230239	0	-0.00171367	0
11.4855	-0.123582	0	0.0231761	0	-0.00171468	0
11.5641	-0.123492	0	0.0233271	0	-0.00171534	0
11.6428	-0.123376	0	0.0234744	0	-0.00171566	0
11.7215	-0.123232	0	0.0236192	0	-0.00171564	0
11.8001	-0.123062	0	0.0237614	0	-0.00171527	0
11.8788	-0.122866	0	0.0238999	0	-0.00171455	0
11.9575	-0.122643	0	0.024037	0	-0.0017135	0
12.0361	-0.122393	0	0.0241715	0	-0.0017121	0
12.1148	-0.122117	0	0.0243033	0	-0.00171035	0
12.1935	-0.121815	0	0.024433	0	-0.00170827	0
12.2721	-0.121487	0	0.0245595	0	-0.00170584	0
12.3508	-0.121132	0	0.0246832	0	-0.00170308	0
12.4295	-0.120751	0	0.0248042	0	-0.00169997	0
12.5081	-0.120344	0	0.0249224	0	-0.00169653	0
12.5868	-0.119911	0	0.0250378	0	-0.00169275	0
12.6655	-0.119452	0	0.0251504	0	-0.00168863	0
12.7441	-0.118967	0	0.0252601	0	-0.00168418	0
12.8228	-0.118456	0	0.025367	0	-0.00167939	0
12.9015	-0.11792	0	0.0254709	0	-0.00167427	0
12.9801	-0.117358	0	0.0255708	0	-0.00166883	0
13.0588	-0.116771	0	0.0256689	0	-0.00166305	0
13.1375	-0.116158	0	0.0257649	0	-0.00165695	0
13.2161	-0.115521	0	0.025857	0	-0.00165053	0
13.2948	-0.114858	0	0.0259466	0	-0.00164379	0
13.3735	-0.114171	0	0.0260314	0	-0.00163673	0
13.4521	-0.11346	0	0.0261149	0	-0.00162935	0
13.5308	-0.112724	0	0.0261946	0	-0.00162167	0
13.6095	-0.111965	0	0.0262712	0	-0.00161368	0
13.6881	-0.111182	0	0.0263446	0	-0.00160538	0
13.7668	-0.110376	0	0.026414	0	-0.00159678	0
13.8455	-0.109547	0	0.0264815	0	-0.0015879	0
13.9241	-0.108696	0	0.0265453	0	-0.00157872	0
14.0028	-0.107823	0	0.0266057	0	-0.00156925	0
14.0815	-0.106928	0	0.0266628	0	-0.00155951	0
14.1601	-0.106013	0	0.0267172	0	-0.00154949	0
14.2388	-0.105076	0	0.0267674	0	-0.00153921	0
14.3175	-0.10412	0	0.026815	0	-0.00152866	0
14.3962	-0.103145	0	0.0268575	0	-0.00151786	0
14.4748	-0.102151	0	0.0268977	0	-0.00150681	0
14.5535	-0.101138	0	0.0269351	0	-0.00149552	0
14.6322	-0.100108	0	0.0269673	0	-0.00148399	0
14.7108	-0.0990609	0	0.0269988	0	-0.00147224	0
14.7895	-0.0979976	0	0.0270252	0	-0.00146027	0
14.8682	-0.0969188	0	0.0270482	0	-0.00144808	0
14.9468	-0.095825	0	0.0270671	0	-0.0014357	0
15.0255	-0.0947171	0	0.027082	0	-0.00142311	0
15.1042	-0.0935958	0	0.0270954	0	-0.00141034	0
15.1828	-0.0924618	0	0.0271051	0	-0.00139739	0
15.2615	-0.0913158	0	0.0271107	0	-0.00138427	0
15.3402	-0.0901585	0	0.0271128	0	-0.00137099	0
15.4188	-0.0889908	0	0.0271102	0	-0.00135755	0
15.4975	-0.0878133	0	0.0271064	0	-0.00134397	0
15.5762	-0.0866268	0	0.0270981	0	-0.00133025	0
15.6548	-0.085432	0	0.0270864	0	-0.0013164	0
15.7335	-0.0842296	0	0.0270708	0	-0.00130243	0
15.8122	-0.0830203	0	0.0270529	0	-0.00128835	0
15.8908	-0.0818048	0	0.0270311	0	-0.00127416	0
15.9695	-0.0805838	0	0.0270056	0	-0.00125987	0
16.0482	-0.0793579	0	0.0269772	0	-0.0012455	0
16.1268	-0.0781278	0	0.026946	0	-0.00123105	0
16.2055	-0.0768941	0	0.0269103	0	-0.00121652	0
16.2842	-0.0756573	0	0.0268721	0	-0.00120193	0
16.3628	-0.0744181	0	0.0268316	0	-0.00118727	0
16.4415	-0.0731769	0	0.026787	0	-0.00117257	0
16.5202	-0.0719344	0	0.026738	0	-0.00115781	0
16.5988	-0.0706909	0	0.0266871	0	-0.00114302	0
16.6775	-0.069447	0	0.0266332	0	-0.0011282	0
16.7562	-0.068203	0	0.0265766	0	-0.00111334	0
16.8348	-0.0669595	0	0.0265167	0	-0.00109847	0
16.9135	-0.0657168	0	0.0264544	0	-0.00108358	0
16.9922	-0.0644752	0	0.0263885	0	-0.00106868	0
17.0708	-0.0632352	0	0.0263192	0	-0.00105377	0
17.1495	-0.061997	0	0.0262476	0	-0.00103886	0
17.2282	-0.0607609	0	0.026173	0	-0.00102395	0
17.3069	-0.0595273	0	0.0260958	0	-0.00100906	0
17.3855	-0.0582964	0	0.0260164	0	-0.000994174	0
17.4642	-0.0570685	0	0.0259337	0	-0.000979307	0
17.5429	-0.0558438	0	0.0258483	0	-0.000964462	0
17.6215	-0.0546226	0	0.0257602	0	-0.000949643	0
17.7002	-0.0534051	0	0.0256677	0	-0.000934853	0
17.7789	-0.0521915	0	0.0255759	0	-0.000920098	0
17.8575	-0.0509822	0	0.0254799	0	-0.00090538	0
17.9362	-0.0497772	0	0.0253814	0	-0.000890705	0
18.0149	-0.048577	0	0.0252803	0	-0.000876076	0
18.0935	-0.0473818	0	0.0251767	0	-0.000861498	0
18.1722	-0.0461917	0	0.0250711	0	-0.000846976	0
18.2509	-0.0450071	0	0.0249618	0	-0.000832512	0
18.3295	-0.0438283	0	0.0248507	0	-0.000818113	0
18.4082	-0.0426557	0	0.0247368	0	-0.000803783	0
18.4869	-0.0414895	0	0.0246213	0	-0.000789527	0
18.5655	-0.04033	0	0.0245028	0	-0.00077535	0
18.6442	-0.0391778	0	0.0243806	0	-0.000761257	0
18.7229	-0.0380332	0	0.0242572	0	-0.000747255	0
18.8015	-0.0368966	0	0.024132	0	-0.000733348	0
18.8802	-0.0357685	0	0.0240038	0	-0.000719542	0
18.9589	-0.0346493	0	0.0238732	0	-0.000705845	0
19.0375	-0.0335397	0	0.0237403	0	-0.000692262	0
19.1162	-0.03244	0	0.023606	0	-0.000678799	0
19.1949	-0.031351	0	0.0234684	0	-0.000665465	0
19.2735	-0.0302731	0	0.0233285	0	-0.000652265	0
19.3522	-0.029207	0	0.0231851	0	-0.000639208	0
19.4309	-0.0281533	0	0.0230406	0	-0.000626299	0
19.5095	-0.0271127	0	0.0228945	0	-0.000613549	0
19.5882	-0.0260858	0	0.0227455	0	-0.000600962	0
19.6669	-0.0250734	0	0.0225932	0	-0.000588549	0
19.7455	-0.0240761	0	0.0224399	0	-0.000576316	0
19.8242	-0.0230946	0	0.0222845	0	-0.000564272	0
19.9029	-0.0221297	0	0.0221276	0	-0.000552424	0
19.9815	-0.021182	0	0.021968	0	-0.000540781	0
20.0602	-0.0202524	0	0.0218073	0	-0.000529351	0
20.1389	-0.0193414	0	0.0216438	0	-0.00051814	0
20.2175	-0.0184498	0	0.0214783	0	-0.000507159	0
20.2962	-0.0175784	0	0.0213109	0	-0.000496413	0
20.3749	-0.0167277	0	0.0211417	0	-0.00048591	0
20.4536	-0.0158984	0	0.0209707	0	-0.000475658	0
20.5322	-0.0150911	0	0.0207981	0	-0.000465664	0
20.6109	-0.0143065	0	0.0206237	0	-0.000455934	0
20.6896	-0.0135452	0	0.0204478	0	-0.000446475	0
20.7682	-0.0128076	0	0.0202704	0	-0.000437292	0
20.8469	-0.0120943	0	0.0200921	0	-0.000428393	0
20.9256	-0.0114057	0	0.01991	0	-0.000419781	0
21.0042	-0.0107422	0	0.0197284	0	-0.000411462	0
21.0829	-0.0101043	0	0.0195456	0	-0.00040344	0
21.1616	-0.00949224	0	0.0193616	0	-0.00039572	0
21.2402	-0.00890629	0	0.0191766	0	-0.000388304	0
21.3189	-0.00834669	0	0.0189905	0	-0.000381196	0
21.3976	-0.00781362	0	0.0188035	0	-0.000374399	0
21.4762	-0.0073072	0	0.0186156	0	-0.000367913	0
21.5549	-0.00682751	0	0.018427	0	-0.000361742	0
21.6336	-0.00637456	0	0.0182376	0	-0.000355885	0
21.7122	-0.00594832	0	0.0180477	0	-0.000350343	0
21.7909	-0.00554872	0	0.0178572	0	-0.000345117	0
21.8696	-0.00517563	0	0.0176662	0	-0.000340205	0
21.9482	-0.00482887	0	0.0174748	0	-0.000335608	0
22.0269	-0.00450824	0	0.0172831	0	-0.000331323	0
22.1056	-0.00421346	0	0.0170911	0	-0.000327349	0
22.1842	-0.00394424	0	0.0168989	0	-0.000323683	0
22.2629	-0.00370026	0	0.0167066	0	-0.000320324	0
22.3416	-0.00348116	0	0.0165142	0	-0.000317268	0
22.4202	-0.00328654	0	0.0163219	0	-0.000314513	0
22.4989	-0.003116	0	0.0161295	0	-0.000312054	0
22.5776	-0.0029691	0	0.0159373	0	-0.000309889	0
22.6562	-0.0028454	0	0.0157462	0	-0.000308014	0
22.7349	-0.00274444	0	0.0155543	0	-0.000306425	0
22.8136	-0.00266578	0	0.0153627	0	-0.000305117	0
22.8922	-0.00260894	0	0.0151713	0	-0.000304088	0
22.9709	-0.00257348	0	0.0149803	0	-0.000303333	0
23.0496	-0.00255894	0	0.0147896	0	-0.000302848	0
23.1282	-0.00256489	0	0.0145993	0	-0.00030263	0
23.2069	-0.00259091	0	0.0144095	0	-0.000302674	0
23.2856	-0.00263661	0	0.01422	0	-0.000302977	0
23.3642	-0.0027016	0	0.0140311	0	-0.000303536	0
23.4429	-0.00278555	0	0.0138427	0	-0.000304347	0
23.5216	-0.00288813	0	0.0136547	0	-0.000305408	0
23.6003	-0.00300907	0	0.0134673	0	-0.000306716	0
23.6789	-0.00314811	0	0.0132805	0	-0.000308268	0
23.7576	-0.00330504	0	0.0130932	0	-0.000310062	0
23.8363	-0.00347969	0	0.0129075	0	-0.000312097	0
23.9149	-0.00367193	0	0.0127224	0	-0.00031437	0
23.9936	-0.00388166	0	0.0125378	0	-0.000316882	0
24.0723	-0.00410883	0	0.0123539	0	-0.00031963	0
24.1509	-0.00435343	0	0.0121707	0	-0.000322615	0
24.2296	-0.00461546	0	0.011988	0	-0.000325836	0
24.3083	-0.004895	0	0.0118061	0	-0.000329293	0
24.3869	-0.00519214	0	0.0116248	0	-0.000332987	0
24.4656	-0.00550699	0	0.0114443	0	-0.000336918	0
24.5443	-0.00583971	0	0.0112644	0	-0.000341087	0
24.6229	-0.00619049	0	0.0110853	0	-0.000345495	0
24.7016	-0.00655952	0	0.010907	0	-0.000350143	0
24.7803	-0.00694702	0	0.0107295	0	-0.000355033	0
24.8589	-0.00735322	0	0.0105528	0	-0.000360166	0
24.9376	-0.00777837	0	0.0103771	0	-0.000365543	0
25.0163	-0.00822271	0	0.0102022	0	-0.000371166	0
25.0949	-0.00868648	0	0.0100283	0	-0.000377036	0
25.1736	-0.00916994	0	0.00985534	0	-0.000383155	0
25.2523	-0.00967329	0	0.00968346	0	-0.000389524	0
25.3309	-0.0101968	0	0.00951269	0	-0.000396143	0
25.4096	-0.0107405	0	0.00934307	0	-0.000403014	0
25.4883	-0.0113048	0	0.00917466	0	-0.000410137	0
25.5669	-0.0118897	0	0.00900752	0	-0.000417513	0
25.6456	-0.0124952	0	0.00884352	0	-0.00042514	0
25.7243	-0.0131216	0	0.00867912	0	-0.000433019	0
25.8029	-0.0137687	0	0.00851561	0	-0.000441149	0
25.8816	-0.0144365	0	0.00835422	0	-0.000449528	0
25.9603	-0.015125	0	0.00819445	0	-0.000458155	0
26.0389	-0.015834	0	0.00803637	0	-0.000467026	0
26.1176	-0.0165633	0	0.00788005	0	-0.000476139	0
26.1963	-0.0173127	0	0.00772557	0	-0.00048549	0
26.2749	-0.0180818	0	0.007573	0	-0.000495076	0
26.3536	-0.0188703	0	0.00742242	0	-0.000504891	0
26.4323	-0.0196777	0	0.00727391	0	-0.00051493	0
26.5109	-0.0205035	0	0.00712754	0	-0.000525187	0
26.5896	-0.0213471	0	0.00698244	0	-0.000535655	0
26.6683	-0.022208	0	0.00684057	0	-0.000546329	0
26.747	-0.0230853	0	0.00670106	0	-0.000557199	0
26.8256	-0.0239785	0	0.00656337	0	-0.000568258	0
26.9043	-0.0248866	0	0.00642876	0	-0.000579498	0
26.983	-0.0258089	0	0.00629671	0	-0.000590908	0
27.0616	-0.0267444	0	0.00616845	0	-0.00060248	0
27.1403	-0.0276923	0	0.00604167	0	-0.000614204	0
27.219	-0.0286514	0	0.005917	0	-0.000626069	0
27.2976	-0.0296209	0	0.00579569	0	-0.000638065	0
27.3763	-0.0305998	0	0.00567896	0	-0.000650181	0
27.455	-0.0315869	0	0.00556269	0	-0.000662405	0
27.5336	-0.0325812	0	0.00544988	0	-0.000674728	0
27.6123	-0.0335816	0	0.00533996	0	-0.000687136	0
27.691	-0.0345871	0	0.00523202	0	-0.00069962	0
27.7696	-0.0355966	0	0.00512796	0	-0.000712168	0
27.8483	-0.036609	0	0.00502686	0	-0.000724768	0
27.927	-0.0376233	0	0.00492872	0	-0.000737411	0
28.0056	-0.0386385	0	0.00483294	0	-0.000750083	0
28.0843	-0.0396535	0	0.00474071	0	-0.000762777	0
28.163	-0.0406675	0	0.00465264	0	-0.00077548	0
28.2416	-0.0416795	0	0.00456631	0	-0.000788184	0
28.3203	-0.0426887	0	0.00448233	0	-0.000800878	0
28.399	-0.0436942	0	0.00440305	0	-0.000813553	0
28.4776	-0.0446953	0	0.00432452	0	-0.000826202	0
28.5563	-0.0456912	0	0.00424922	0	-0.000838815	0
28.635	-0.0466813	0	0.00417855	0	-0.000851387	0
28.7136	-0.0476651	0	0.00410891	0	-0.000863908	0
28.7923	-0.048642	0	0.00404266	0	-0.000876374	0
28.871	-0.0496116	0	0.00397917	0	-0.000888779	0
28.9496	-0.0505734	0	0.00391841	0	-0.000901117	0
29.0283	-0.0515273	0	0.00386033	0	-0.000913384	0
29.107	-0.0524728	0	0.00380491	0	-0.000925576	0
29.1856	-0.0534099	0	0.00375177	0	-0.00093769	0
29.2643	-0.0543384	0	0.00370218	0	-0.000949723	0
29.343	-0.0552583	0	0.00365456	0	-0.000961673	0
29.4216	-0.0561696	0	0.00360949	0	-0.000973538	0
29.5003	-0.0570722	0	0.00356694	0	-0.000985318	0
29.579	-0.0579664	0	0.00352689	0	-0.000997011	0
29.6576	-0.0588522	0	0.00348873	0	-0.00100862	0
29.7363	-0.0597299	0	0.00345362	0	-0.00102014	0
29.815	-0.0605997	0	0.00342001	0	-0.00103157	0
29.8937	-0.0614618	0	0.003391	0	-0.00104292	0
29.9723	-0.0623166	0	0.00336322	0	-0.00105418	0
30.051	-0.0631642	0	0.00333847	0	-0.00106536	0
30.1297	-0.064005	0	0.00331556	0	-0.00107646	0
30.2083	-0.0648393	0	0.00329509	0	-0.00108748	0
30.287	-0.0656675	0	0.00327648	0	-0.00109841	0
30.3657	-0.0664897	0	0.00326094	0	-0.00110927	0
30.4443	-0.0673063	0	0.00324813	0	-0.00112005	0
30.523	-0.0681174	0	0.00323699	0	-0.00113075	0
30.6017	-0.0689234	0	0.00322899	0	-0.00114138	0
30.6803	-0.0697244	0	0.00322355	0	-0.00115193	0
30.759	-0.0705205	0	0.0032207	0	-0.0011624	0
30.8377	-0.0713119	0	0.00322168	0	-0.0011728	0
30.9163	-0.0720985	0	0.00322413	0	-0.00118311	0
30.995	-0.0728803	0	0.00322928	0	-0.00119335	0
31.0737	-0.0736573	0	0.00323623	0	-0.0012035	0
31.1523	-0.0744294	0	0.00324693	0	-0.00121357	0
31.231	-0.0751963	0	0.00325986	0	-0.00122356	0
31.3097	-0.0759577	0	0.00327744	0	-0.00123345	0
31.3883	-0.0767134	0	0.00329615	0	-0.00124324	0
31.467	-0.0774629	0	0.00331842	0	-0.00125294	0
31.5457	-0.0782058	0	0.00334368	0	-0.00126252	0
31.6243	-0.0789415	0	0.00337317	0	-0.001272	0
31.703	-0.0796695	0	0.00340358	0	-0.00128136	0
31.7817	-0.080389	0	0.00343804	0	-0.00129059	0
31.8603	-0.0810995	0	0.00347563	0	-0.00129968	0
31.939	-0.0818001	0	0.00351637	0	-0.00130864	0
32.0177	-0.0824899	0	0.0035603	0	-0.00131745	0
32.0963	-0.0831683	0	0.00360741	0	-0.00132609	0
32.175	-0.0838342	0	0.00365773	0	-0.00133457	0
32.2537	-0.0844867	0	0.00371126	0	-0.00134287	0
32.3323	-0.085125	0	0.00376705	0	-0.00135098	0
32.411	-0.085748	0	0.00382699	0	-0.0013589	0
32.4897	-0.0863548	0	0.00389133	0	-0.00136661	0
32.5683	-0.0869445	0	0.00395765	0	-0.00137411	0
32.647	-0.0875159	0	0.00402713	0	-0.00138138	0
32.7257	-0.0880683	0	0.00409974	0	-0.00138841	0
32.8043	-0.0886006	0	0.00417546	0	-0.0013952	0
32.883	-0.089112	0	0.00425422	0	-0.00140174	0
32.9617	-0.0896015	0	0.00433541	0	-0.00140801	0
