# SeaFEM body kinematics file v.1.0
DataSets	Body data Auto1
SubSets	Movements	Velocities	Accelerations
numResults	18
time[s]	Surge	Sway	Heave	Roll	Pitch	Yaw	Surge_Vel	Sway_Vel	Heave_Vel	Roll_Vel	Pitch_Vel	Yaw_Vel	Surge_Accel	Sway_Accel	Heave_Accel	Roll_Accel	Pitch_Accel	Yaw_Accel
0.0786675	0	0	0	0	0	0	0	0	0	0	0	0	0	0	0	0	0	0
0.157335	-1.67454e-05	0	1.87561e-06	0	-2.14556e-07	0	-0.000425508	0	4.77059e-05	0	-5.4526e-06	0	-0.00539646	0	0.000607605	0	-6.92358e-05	0
0.236003	-6.68935e-05	0	7.50828e-06	0	-8.57367e-07	0	-0.000849238	0	9.54845e-05	0	-1.08877e-05	0	-0.00537319	0	0.000606777	0	-6.90051e-05	0
0.31467	-0.000150303	0	1.68968e-05	0	-1.92703e-06	0	-0.00127102	0	0.000143193	0	-1.63032e-05	0	-0.00534751	0	0.000605943	0	-6.87434e-05	0
0.393338	-0.000266813	0	3.00374e-05	0	-3.42191e-06	0	-0.00169066	0	0.000190875	0	-2.16968e-05	0	-0.00531946	0	0.000605105	0	-6.84513e-05	0
0.472005	-0.000416248	0	4.69246e-05	0	-5.34019e-06	0	-0.00210798	0	0.000238443	0	-2.70661e-05	0	-0.00528907	0	0.000604261	0	-6.81289e-05	0
0.550673	-0.000598419	0	6.75493e-05	0	-7.67984e-06	0	-0.00252281	0	0.000285873	0	-3.24084e-05	0	-0.00525636	0	0.000601861	0	-6.77764e-05	0
0.62934	-0.000813122	0	9.18989e-05	0	-1.04387e-05	0	-0.00293495	0	0.000333156	0	-3.77216e-05	0	-0.00522133	0	0.00060029	0	-6.73941e-05	0
0.708008	-0.00106014	0	0.000119963	0	-1.36143e-05	0	-0.00334422	0	0.0003803	0	-4.30034e-05	0	-0.00518404	0	0.00059765	0	-6.69823e-05	0
0.786675	-0.00133924	0	0.000151727	0	-1.72042e-05	0	-0.00375046	0	0.000427241	0	-4.82512e-05	0	-0.00514449	0	0.000596239	0	-6.65413e-05	0
0.865343	-0.00165017	0	0.000187179	0	-2.12055e-05	0	-0.00415347	0	0.000474044	0	-5.34632e-05	0	-0.00510271	0	0.000594365	0	-6.60712e-05	0
0.94401	-0.00199267	0	0.000226312	0	-2.56154e-05	0	-0.00455309	0	0.000520708	0	-5.86369e-05	0	-0.00505872	0	0.000591163	0	-6.55725e-05	0
1.02268	-0.00236648	0	0.000269103	0	-3.04307e-05	0	-0.00494915	0	0.000567166	0	-6.37697e-05	0	-0.00501255	0	0.000589507	0	-6.50452e-05	0
1.10134	-0.0027713	0	0.000315542	0	-3.56482e-05	0	-0.00534147	0	0.00061342	0	-6.88598e-05	0	-0.0049642	0	0.000586295	0	-6.44897e-05	0
1.18001	-0.00320684	0	0.000365609	0	-4.12644e-05	0	-0.00572989	0	0.000659423	0	-7.39049e-05	0	-0.00491372	0	0.000583137	0	-6.39064e-05	0
1.25868	-0.00367277	0	0.000419286	0	-4.72756e-05	0	-0.00611423	0	0.000705199	0	-7.89028e-05	0	-0.00486111	0	0.00058069	0	-6.32954e-05	0
1.33735	-0.00416878	0	0.000476554	0	-5.36782e-05	0	-0.00649433	0	0.000750713	0	-8.38514e-05	0	-0.0048064	0	0.000577291	0	-6.2657e-05	0
1.41601	-0.00469452	0	0.000537394	0	-6.04681e-05	0	-0.00687003	0	0.000796021	0	-8.87484e-05	0	-0.00474962	0	0.000574058	0	-6.19916e-05	0
1.49468	-0.00524964	0	0.000601787	0	-6.76411e-05	0	-0.00724115	0	0.000841033	0	-9.35919e-05	0	-0.00469076	0	0.000569814	0	-6.12992e-05	0
1.57335	-0.00583377	0	0.000669711	0	-7.5193e-05	0	-0.00760754	0	0.000885772	0	-9.83798e-05	0	-0.00462988	0	0.000567346	0	-6.05804e-05	0
1.65202	-0.00644654	0	0.000741144	0	-8.31194e-05	0	-0.00796905	0	0.000930258	0	-0.00010311	0	-0.00456697	0	0.000563379	0	-5.98353e-05	0
1.73068	-0.00708755	0	0.000816066	0	-9.14156e-05	0	-0.00832551	0	0.000974449	0	-0.00010778	0	-0.00450207	0	0.000559348	0	-5.90643e-05	0
1.80935	-0.0077564	0	0.000894449	0	-0.000100077	0	-0.00867676	0	0.00101825	0	-0.000112388	0	-0.0044352	0	0.000555312	0	-5.82677e-05	0
1.88802	-0.00845267	0	0.000976264	0	-0.000109098	0	-0.00902267	0	0.00106172	0	-0.000116933	0	-0.00436639	0	0.000551099	0	-5.74458e-05	0
1.96669	-0.00917595	0	0.0010615	0	-0.000118474	0	-0.00936309	0	0.00110502	0	-0.000121411	0	-0.00429565	0	0.000547886	0	-5.6599e-05	0
2.04535	-0.00992583	0	0.00115011	0	-0.000128201	0	-0.00969949	0	0.00114786	0	-0.000125844	0	-0.00423636	0	0.00054158	0	-5.59034e-05	0
2.12402	-0.0107019	0	0.00124208	0	-0.000138272	0	-0.01003	0	0.00119024	0	-0.000130205	0	-0.00416233	0	0.000536637	0	-5.5014e-05	0
2.20269	-0.0115037	0	0.00133737	0	-0.000148685	0	-0.0103545	0	0.00123232	0	-0.000134496	0	-0.00408645	0	0.000532575	0	-5.41004e-05	0
2.28136	-0.0123309	0	0.00143596	0	-0.000159431	0	-0.010673	0	0.00127401	0	-0.000138713	0	-0.00400876	0	0.00052779	0	-5.31633e-05	0
2.36002	-0.0131828	0	0.00153781	0	-0.000170507	0	-0.0109854	0	0.00131534	0	-0.000142856	0	-0.0039293	0	0.000522651	0	-5.22033e-05	0
2.43869	-0.0140591	0	0.0016429	0	-0.000181906	0	-0.0112914	0	0.00135627	0	-0.000146923	0	-0.00384809	0	0.000517796	0	-5.12204e-05	0
2.51736	-0.0149592	0	0.00175119	0	-0.000193621	0	-0.011591	0	0.00139684	0	-0.000150911	0	-0.00376518	0	0.000512993	0	-5.02154e-05	0
2.59603	-0.0158826	0	0.00186265	0	-0.000205647	0	-0.0118839	0	0.00143695	0	-0.00015482	0	-0.00368063	0	0.00050712	0	-4.9189e-05	0
2.67469	-0.0168288	0	0.00197726	0	-0.000217977	0	-0.0121702	0	0.00147659	0	-0.000158647	0	-0.00359448	0	0.00050153	0	-4.81415e-05	0
2.75336	-0.0177972	0	0.00209496	0	-0.000230606	0	-0.0124496	0	0.00151581	0	-0.00016239	0	-0.00350678	0	0.000495705	0	-4.70737e-05	0
2.83203	-0.0187873	0	0.00221573	0	-0.000243525	0	-0.0127221	0	0.00155457	0	-0.000166049	0	-0.00341758	0	0.000490044	0	-4.59861e-05	0
2.9107	-0.0197986	0	0.00233954	0	-0.000256729	0	-0.0129874	0	0.0015929	0	-0.000169622	0	-0.00332696	0	0.000484206	0	-4.48795e-05	0
2.98936	-0.0208305	0	0.00246634	0	-0.00027021	0	-0.0132456	0	0.00163075	0	-0.000173107	0	-0.00323496	0	0.000477817	0	-4.37546e-05	0
3.06803	-0.0218825	0	0.0025961	0	-0.000283962	0	-0.0134966	0	0.00166806	0	-0.000176503	0	-0.00314166	0	0.000471968	0	-4.2612e-05	0
3.1467	-0.0229538	0	0.00272878	0	-0.000297978	0	-0.0137401	0	0.00170497	0	-0.000179808	0	-0.00304711	0	0.000466224	0	-4.14526e-05	0
3.22537	-0.024044	0	0.00286339	0	-0.00031225	0	-0.0139761	0	0.00174138	0	-0.000183022	0	-0.00295141	0	0.000459818	0	-4.02772e-05	0
3.30403	-0.0251525	0	0.00300179	0	-0.000326771	0	-0.0142045	0	0.00177726	0	-0.000186142	0	-0.00285459	0	0.000453117	0	-3.90864e-05	0
3.3827	-0.0262787	0	0.003143	0	-0.000341534	0	-0.0144253	0	0.0018127	0	-0.000189169	0	-0.00275675	0	0.000447415	0	-3.78812e-05	0
3.46137	-0.0274219	0	0.00328698	0	-0.000356531	0	-0.0146384	0	0.0018476	0	-0.0001921	0	-0.00265796	0	0.000440046	0	-3.66624e-05	0
3.54004	-0.0285816	0	0.00343368	0	-0.000371756	0	-0.0148436	0	0.00188198	0	-0.000194935	0	-0.0025583	0	0.000433618	0	-3.54308e-05	0
3.6187	-0.0297572	0	0.00358307	0	-0.000387199	0	-0.015041	0	0.00191584	0	-0.000197672	0	-0.00245786	0	0.000426002	0	-3.41875e-05	0
3.69737	-0.0309479	0	0.00373509	0	-0.000402854	0	-0.0152304	0	0.00194914	0	-0.000200311	0	-0.00235668	0	0.000419563	0	-3.29329e-05	0
3.77604	-0.0321532	0	0.00388972	0	-0.000418712	0	-0.0154119	0	0.00198182	0	-0.000202851	0	-0.00225487	0	0.000411398	0	-3.16684e-05	0
3.85471	-0.0333725	0	0.00404867	0	-0.000434767	0	-0.0155853	0	0.00201387	0	-0.000205291	0	-0.00215251	0	0.000404114	0	-3.03946e-05	0
3.93337	-0.0346051	0	0.00420775	0	-0.000451009	0	-0.0157507	0	0.00204539	0	-0.000207631	0	-0.00204966	0	0.000396656	0	-2.91123e-05	0
4.01204	-0.0358504	0	0.00436987	0	-0.000467432	0	-0.0159079	0	0.00207633	0	-0.00020987	0	-0.00194639	0	0.000389422	0	-2.78223e-05	0
4.09071	-0.0371078	0	0.0045344	0	-0.000484026	0	-0.016057	0	0.0021066	0	-0.000212007	0	-0.00184278	0	0.000381895	0	-2.65256e-05	0
4.16938	-0.0383766	0	0.0047013	0	-0.000500785	0	-0.0161979	0	0.00213636	0	-0.000214042	0	-0.0017389	0	0.000373818	0	-2.52229e-05	0
4.24804	-0.0396561	0	0.0048705	0	-0.0005177	0	-0.0163307	0	0.0021654	0	-0.000215974	0	-0.00163482	0	0.000366283	0	-2.39151e-05	0
4.32671	-0.0409457	0	0.00504198	0	-0.000534763	0	-0.0164552	0	0.00219393	0	-0.000217803	0	-0.00153059	0	0.000358862	0	-2.26026e-05	0
4.40538	-0.0422449	0	0.00521472	0	-0.000551965	0	-0.0165716	0	0.00222185	0	-0.000219528	0	-0.00142628	0	0.000350831	0	-2.12865e-05	0
4.48405	-0.0435528	0	0.00538998	0	-0.000569299	0	-0.0166797	0	0.00224908	0	-0.00022115	0	-0.00132194	0	0.000341733	0	-1.99673e-05	0
4.56271	-0.0448689	0	0.00556796	0	-0.000586757	0	-0.0167797	0	0.00227563	0	-0.000222669	0	-0.00121762	0	0.000333466	0	-1.86455e-05	0
4.64138	-0.0461926	0	0.0057492	0	-0.00060433	0	-0.0168714	0	0.00230162	0	-0.000224083	0	-0.00111337	0	0.000326141	0	-1.73218e-05	0
4.72005	-0.0475232	0	0.00593067	0	-0.00062201	0	-0.0169549	0	0.00232699	0	-0.000225393	0	-0.00100923	0	0.000318096	0	-1.59969e-05	0
4.79872	-0.04886	0	0.0061147	0	-0.00063979	0	-0.0170302	0	0.00235162	0	-0.000226599	0	-0.000905237	0	0.000308983	0	-1.46712e-05	0
4.87738	-0.0502024	0	0.00630183	0	-0.00065766	0	-0.0170974	0	0.00237562	0	-0.000227701	0	-0.000801398	0	0.000300643	0	-1.33448e-05	0
4.95605	-0.0515498	0	0.00648964	0	-0.000675612	0	-0.0171564	0	0.00239894	0	-0.000228698	0	-0.000697765	0	0.000291642	0	-1.20186e-05	0
5.03472	-0.0529015	0	0.0066783	0	-0.000693639	0	-0.0172072	0	0.00242159	0	-0.000229591	0	-0.000594343	0	0.0002843	0	-1.06927e-05	0
5.11339	-0.0542569	0	0.00686967	0	-0.000711732	0	-0.0172499	0	0.00244361	0	-0.000230379	0	-0.00049114	0	0.000275174	0	-9.36731e-06	0
5.19205	-0.0556153	0	0.00706275	0	-0.000729883	0	-0.0172845	0	0.00246495	0	-0.000231064	0	-0.000388175	0	0.000267051	0	-8.04285e-06	0
5.27072	-0.0569761	0	0.00725688	0	-0.000748084	0	-0.0173111	0	0.0024856	0	-0.000231644	0	-0.000285436	0	0.000258037	0	-6.71933e-06	0
5.34939	-0.0583387	0	0.00745321	0	-0.000766326	0	-0.0173295	0	0.00250551	0	-0.000232121	0	-0.000182946	0	0.000248903	0	-5.39722e-06	0
5.42806	-0.0597025	0	0.00765227	0	-0.000784602	0	-0.0173399	0	0.00252485	0	-0.000232493	0	-8.06863e-05	0	0.000241605	0	-4.07647e-06	0
5.50672	-0.0610667	0	0.00785103	0	-0.000802903	0	-0.0173422	0	0.00254349	0	-0.000232762	0	2.13449e-05	0	0.000231748	0	-2.75727e-06	0
5.58539	-0.0624308	0	0.00805207	0	-0.000821221	0	-0.0173365	0	0.00256141	0	-0.000232927	0	0.000123158	0	0.000223787	0	-1.43972e-06	0
5.66406	-0.0637941	0	0.00825366	0	-0.000839548	0	-0.0173228	0	0.00257868	0	-0.000232989	0	0.00022479	0	0.000215415	0	-1.23587e-07	0
5.74273	-0.0651561	0	0.00845777	0	-0.000857875	0	-0.0173012	0	0.00259528	0	-0.000232947	0	0.000326231	0	0.000206325	0	1.19078e-06	0
5.82139	-0.066516	0	0.00866256	0	-0.000876196	0	-0.0172715	0	0.00261118	0	-0.000232801	0	0.000427492	0	0.000197403	0	2.50331e-06	0
5.90006	-0.0678733	0	0.00886858	0	-0.0008945	0	-0.0172339	0	0.00262631	0	-0.000232553	0	0.00052862	0	0.000188964	0	3.8143e-06	0
5.97873	-0.0692273	0	0.00907576	0	-0.000912782	0	-0.0171883	0	0.00264084	0	-0.000232201	0	0.000629606	0	0.000180811	0	5.12345e-06	0
6.0574	-0.0705774	0	0.0092831	0	-0.000931031	0	-0.0171348	0	0.00265469	0	-0.000231747	0	0.000730448	0	0.000171769	0	6.4305e-06	0
6.13606	-0.071923	0	0.00949366	0	-0.000949241	0	-0.0170734	0	0.00266785	0	-0.00023119	0	0.000831187	0	0.000162605	0	7.73574e-06	0
6.21473	-0.0732634	0	0.00970402	0	-0.000967403	0	-0.017004	0	0.00268032	0	-0.00023053	0	0.000931825	0	0.000154503	0	9.03899e-06	0
6.2934	-0.0745981	0	0.00991535	0	-0.000985509	0	-0.0169268	0	0.0026921	0	-0.000229768	0	0.00103236	0	0.000145335	0	1.034e-05	0
6.37207	-0.0759264	0	0.0101276	0	-0.00100355	0	-0.0168416	0	0.00270319	0	-0.000228904	0	0.0011328	0	0.000136222	0	1.16388e-05	0
6.45073	-0.0772477	0	0.01034	0	-0.00102152	0	-0.0167485	0	0.00271361	0	-0.000227938	0	0.00123313	0	0.000128829	0	1.29349e-05	0
6.5294	-0.0785613	0	0.0105541	0	-0.00103941	0	-0.0166475	0	0.00272339	0	-0.00022687	0	0.00133335	0	0.000119653	0	1.42282e-05	0
6.60807	-0.0798667	0	0.0107687	0	-0.00105721	0	-0.0165387	0	0.00273243	0	-0.0002257	0	0.00143344	0	0.000110764	0	1.55184e-05	0
6.68674	-0.0811632	0	0.0109846	0	-0.00107492	0	-0.0164219	0	0.00274076	0	-0.000224429	0	0.00153335	0	0.000101584	0	1.68048e-05	0
6.7654	-0.0824502	0	0.0112005	0	-0.00109252	0	-0.0162974	0	0.00274841	0	-0.000223057	0	0.00163308	0	9.25198e-05	0	1.80872e-05	0
6.84407	-0.0837272	0	0.0114164	0	-0.00111001	0	-0.0161649	0	0.00275538	0	-0.000221585	0	0.00173258	0	8.51167e-05	0	1.9365e-05	0
6.92274	-0.0849933	0	0.0116337	0	-0.00112738	0	-0.0160247	0	0.00276171	0	-0.000220012	0	0.00183179	0	7.5991e-05	0	2.06377e-05	0
7.00141	-0.0862482	0	0.0118506	0	-0.00114462	0	-0.0158767	0	0.0027673	0	-0.000218339	0	0.00193066	0	6.68051e-05	0	2.19043e-05	0
7.08007	-0.0874911	0	0.0120685	0	-0.00116173	0	-0.0157209	0	0.00277224	0	-0.000216567	0	0.00202911	0	5.79071e-05	0	2.31643e-05	0
7.15874	-0.0887214	0	0.0122879	0	-0.00117869	0	-0.0155574	0	0.00277644	0	-0.000214696	0	0.00212709	0	4.87202e-05	0	2.44168e-05	0
7.23741	-0.0899386	0	0.0125065	0	-0.00119551	0	-0.0153861	0	0.00277994	0	-0.000212727	0	0.00222448	0	3.98218e-05	0	2.56606e-05	0
7.31608	-0.091142	0	0.0127243	0	-0.00121216	0	-0.0152073	0	0.00278275	0	-0.000210661	0	0.0023212	0	3.14699e-05	0	2.6895e-05	0
7.39474	-0.0923311	0	0.0129427	0	-0.00122865	0	-0.0150208	0	0.00278487	0	-0.000208498	0	0.00241716	0	2.23434e-05	0	2.81187e-05	0
7.47341	-0.0935051	0	0.0131625	0	-0.00124496	0	-0.0148269	0	0.0027863	0	-0.000206239	0	0.00251222	0	1.33886e-05	0	2.93306e-05	0
7.55208	-0.0946636	0	0.0133817	0	-0.0012611	0	-0.0146255	0	0.00278688	0	-0.000203885	0	0.00260629	0	3.43061e-06	0	3.05295e-05	0
7.63075	-0.095806	0	0.0136012	0	-0.00127704	0	-0.0144168	0	0.00278676	0	-0.000201438	0	0.00269924	0	-5.69034e-06	0	3.17143e-05	0
7.70941	-0.0969317	0	0.0138204	0	-0.00129279	0	-0.0142007	0	0.00278595	0	-0.000198898	0	0.00279093	0	-1.46381e-05	0	3.28834e-05	0
7.78808	-0.0980401	0	0.0140395	0	-0.00130833	0	-0.0139776	0	0.00278439	0	-0.000196266	0	0.00288124	0	-2.441e-05	0	3.40356e-05	0
7.86675	-0.0991307	0	0.0142584	0	-0.00132366	0	-0.0137473	0	0.00278208	0	-0.000193545	0	0.00297	0	-3.36387e-05	0	3.51692e-05	0
7.94542	-0.100203	0	0.0144772	0	-0.00133878	0	-0.0135102	0	0.00277908	0	-0.000190736	0	0.0030571	0	-4.25743e-05	0	3.62831e-05	0
8.02408	-0.101256	0	0.0146947	0	-0.00135367	0	-0.0132663	0	0.00277535	0	-0.000187839	0	0.00314237	0	-5.24503e-05	0	3.73757e-05	0
8.10275	-0.10229	0	0.014914	0	-0.00136833	0	-0.0130157	0	0.00277083	0	-0.000184858	0	0.00322568	0	-6.23205e-05	0	3.84457e-05	0
8.18142	-0.103304	0	0.0151318	0	-0.00138275	0	-0.0127587	0	0.0027656	0	-0.000181794	0	0.0033069	0	-7.12385e-05	0	3.94916e-05	0
8.26009	-0.104297	0	0.0153491	0	-0.00139693	0	-0.0124954	0	0.00275957	0	-0.000178648	0	0.00338586	0	-8.10359e-05	0	4.05119e-05	0
8.33875	-0.10527	0	0.0155654	0	-0.00141086	0	-0.0122259	0	0.00275284	0	-0.000175423	0	0.00346241	0	-9.01092e-05	0	4.1505e-05	0
8.41742	-0.106221	0	0.0157819	0	-0.00142453	0	-0.0119506	0	0.00274542	0	-0.000172121	0	0.00353646	0	-9.97202e-05	0	4.24702e-05	0
8.49609	-0.10715	0	0.0159975	0	-0.00143794	0	-0.0116694	0	0.00273712	0	-0.000168745	0	0.00360784	0	-0.000110445	0	4.34055e-05	0
8.57476	-0.108056	0	0.0162131	0	-0.00145108	0	-0.0113828	0	0.00272807	0	-0.000165296	0	0.00367645	0	-0.000120268	0	4.43101e-05	0
8.65342	-0.10894	0	0.0164273	0	-0.00146394	0	-0.0110909	0	0.00271827	0	-0.000161777	0	0.00374217	0	-0.000129134	0	4.51828e-05	0
8.73209	-0.109801	0	0.0166402	0	-0.00147653	0	-0.010794	0	0.00270768	0	-0.000158191	0	0.00380491	0	-0.000138935	0	4.60227e-05	0
8.81076	-0.110639	0	0.0168518	0	-0.00148883	0	-0.0104922	0	0.00269634	0	-0.00015454	0	0.00386456	0	-0.000148785	0	4.68285e-05	0
8.88943	-0.111452	0	0.0170646	0	-0.00150084	0	-0.0101859	0	0.00268424	0	-0.000150827	0	0.00392106	0	-0.000159339	0	4.75998e-05	0
8.96809	-0.112241	0	0.0172747	0	-0.00151256	0	-0.00987524	0	0.00267133	0	-0.000147055	0	0.00397433	0	-0.000168161	0	4.83356e-05	0
9.04676	-0.113006	0	0.0174843	0	-0.00152398	0	-0.00956052	0	0.00265773	0	-0.000143227	0	0.00402431	0	-0.000177916	0	4.90354e-05	0
9.12543	-0.113745	0	0.0176934	0	-0.00153509	0	-0.009242	0	0.0026434	0	-0.000139345	0	0.00407099	0	-0.000186883	0	4.96989e-05	0
9.2041	-0.11446	0	0.017901	0	-0.0015459	0	-0.00891994	0	0.00262832	0	-0.000135412	0	0.00411432	0	-0.000196383	0	5.03258e-05	0
9.28276	-0.115149	0	0.0181066	0	-0.0015564	0	-0.0085946	0	0.0026125	0	-0.000131431	0	0.00415432	0	-0.000205384	0	5.09158e-05	0
9.36143	-0.115812	0	0.0183114	0	-0.00156658	0	-0.00826624	0	0.00259601	0	-0.000127405	0	0.00419098	0	-0.000214312	0	5.1469e-05	0
9.4401	-0.116449	0	0.018515	0	-0.00157644	0	-0.00793513	0	0.00257876	0	-0.000123337	0	0.00422434	0	-0.000224779	0	5.19857e-05	0
9.51877	-0.11706	0	0.0187171	0	-0.00158598	0	-0.00760152	0	0.00256074	0	-0.000119231	0	0.00425442	0	-0.000233511	0	5.2466e-05	0
9.59743	-0.117645	0	0.0189173	0	-0.0015952	0	-0.00726568	0	0.00254203	0	-0.000115087	0	0.00428132	0	-0.000242459	0	5.29105e-05	0
9.6761	-0.118203	0	0.0191183	0	-0.00160409	0	-0.00692785	0	0.00252265	0	-0.00011091	0	0.0043051	0	-0.00025039	0	5.332e-05	0
9.75477	-0.118735	0	0.019315	0	-0.00161265	0	-0.00658825	0	0.0025026	0	-0.000106702	0	0.00432583	0	-0.000259312	0	5.3695e-05	0
9.83344	-0.11924	0	0.019511	0	-0.00162087	0	-0.00624713	0	0.00248188	0	-0.000102466	0	0.00434365	0	-0.000267218	0	5.40365e-05	0
9.9121	-0.119718	0	0.0197054	0	-0.00162877	0	-0.00590473	0	0.00246049	0	-9.8205e-05	0	0.00435865	0	-0.000275938	0	5.43454e-05	0
9.99077	-0.120169	0	0.0198976	0	-0.00163632	0	-0.00556125	0	0.00243849	0	-9.39204e-05	0	0.00437097	0	-0.000284048	0	5.46229e-05	0
10.0694	-0.120593	0	0.0200897	0	-0.00164354	0	-0.0052169	0	0.00241584	0	-8.96152e-05	0	0.00438079	0	-0.000291918	0	5.48707e-05	0
10.1481	-0.12099	0	0.0202782	0	-0.00165042	0	-0.00487188	0	0.00239258	0	-8.52916e-05	0	0.00438822	0	-0.000299171	0	5.50896e-05	0
10.2268	-0.121359	0	0.0204655	0	-0.00165696	0	-0.00452636	0	0.00236869	0	-8.09518e-05	0	0.00439343	0	-0.000307077	0	5.52811e-05	0
10.3054	-0.121702	0	0.0206499	0	-0.00166316	0	-0.0041805	0	0.00234424	0	-7.6598e-05	0	0.00439662	0	-0.00031431	0	5.5447e-05	0
10.3841	-0.122017	0	0.0208334	0	-0.00166901	0	-0.00383447	0	0.00231924	0	-7.22321e-05	0	0.00439795	0	-0.000321362	0	5.55886e-05	0
10.4628	-0.122305	0	0.021016	0	-0.00167452	0	-0.0034884	0	0.00229372	0	-6.78559e-05	0	0.00439759	0	-0.000327858	0	5.57077e-05	0
10.5414	-0.122566	0	0.0211954	0	-0.00167969	0	-0.00314241	0	0.00226767	0	-6.34712e-05	0	0.00439574	0	-0.000334833	0	5.58057e-05	0
10.6201	-0.122799	0	0.0213728	0	-0.00168451	0	-0.00279664	0	0.00224113	0	-5.90795e-05	0	0.00439255	0	-0.000341254	0	5.58843e-05	0
10.6988	-0.123006	0	0.021548	0	-0.00168899	0	-0.00245114	0	0.00221404	0	-5.46824e-05	0	0.00438824	0	-0.000346603	0	5.59452e-05	0
10.7774	-0.123185	0	0.0217211	0	-0.00169311	0	-0.00210602	0	0.00218654	0	-5.02812e-05	0	0.00438296	0	-0.000352293	0	5.59897e-05	0
10.8561	-0.123337	0	0.021892	0	-0.0016969	0	-0.00176134	0	0.00215859	0	-4.58772e-05	0	0.00437689	0	-0.000358522	0	5.60197e-05	0
10.9348	-0.123462	0	0.0220607	0	-0.00170033	0	-0.00141717	0	0.00213016	0	-4.14713e-05	0	0.00437017	0	-0.000364974	0	5.60361e-05	0
11.0134	-0.12356	0	0.0222272	0	-0.00170342	0	-0.00107355	0	0.00210127	0	-3.70645e-05	0	0.00436298	0	-0.000369641	0	5.60407e-05	0
11.0921	-0.123631	0	0.0223913	0	-0.00170616	0	-0.000730509	0	0.002072	0	-3.26578e-05	0	0.00435542	0	-0.000374302	0	5.60345e-05	0
11.1708	-0.123675	0	0.0225532	0	-0.00170856	0	-0.00038807	0	0.00204233	0	-2.82519e-05	0	0.00434764	0	-0.000379963	0	5.60186e-05	0
11.2495	-0.123692	0	0.022712	0	-0.00171061	0	-4.62594e-05	0	0.00201227	0	-2.38475e-05	0	0.00433975	0	-0.000384556	0	5.59941e-05	0
11.3281	-0.123682	0	0.0228692	0	-0.00171231	0	0.000294931	0	0.00198181	0	-1.94453e-05	0	0.00433181	0	-0.000389374	0	5.59616e-05	0
11.4068	-0.123646	0	0.0230239	0	-0.00171367	0	0.000635512	0	0.00195108	0	-1.50462e-05	0	0.00432395	0	-0.000393243	0	5.59221e-05	0
11.4855	-0.123582	0	0.0231761	0	-0.00171468	0	0.000975475	0	0.00191991	0	-1.06504e-05	0	0.00431615	0	-0.000398599	0	5.58757e-05	0
11.5641	-0.123492	0	0.0233271	0	-0.00171534	0	0.00131482	0	0.00188835	0	-6.25839e-06	0	0.00430849	0	-0.000402689	0	5.58228e-05	0
11.6428	-0.123376	0	0.0234744	0	-0.00171566	0	0.00165358	0	0.00185656	0	-1.87096e-06	0	0.00430096	0	-0.000407322	0	5.57635e-05	0
11.7215	-0.123232	0	0.0236192	0	-0.00171564	0	0.00199173	0	0.00182435	0	2.5118e-06	0	0.00429355	0	-0.000411176	0	5.56977e-05	0
11.8001	-0.123062	0	0.0237614	0	-0.00171527	0	0.00232932	0	0.00179185	0	6.88904e-06	0	0.00428625	0	-0.000415196	0	5.56254e-05	0
11.8788	-0.122866	0	0.0238999	0	-0.00171455	0	0.00266633	0	0.00175905	0	1.12602e-05	0	0.00427899	0	-0.000419042	0	5.55458e-05	0
