# SeaFEM body drift results file v.1.0
DataSets	Body data Auto1
SubSets	Drift
numResults	6
time[s]	Fx_correction[N]	Fy_correction[N]	Fz_correction[N]	Mx_correction[N]	My_correction[N]	Mz_correction[N]
0.0786675	-1.68651e-11	-4.35832e-15	-3.01904e-12	-1.99877e-13	-2.38606e-12	-8.90913e-17
0.157335	-2.40519e-07	-2.53183e-12	-1.85693e-06	-7.48079e-10	1.99588e-06	-8.99045e-12
0.236003	-2.11409e-06	-3.11376e-11	-2.96447e-05	-1.20318e-08	1.77711e-05	-5.62177e-11
0.31467	-8.17529e-06	-1.57477e-10	-0.000149706	-6.10617e-08	6.95501e-05	-1.24114e-10
0.393338	-2.17089e-05	-5.2484e-10	-0.000471886	-1.93287e-07	0.000186951	-6.22763e-11
0.472005	-4.61215e-05	-1.3658e-09	-0.00114882	-4.72392e-07	0.000402404	4.94897e-10
0.550673	-8.4187e-05	-3.01247e-09	-0.00237516	-9.80184e-07	0.000745258	2.20109e-09
0.62934	-0.000137186	-5.89797e-09	-0.00438668	-1.81638e-06	0.00123487	6.05582e-09
0.708008	-0.000203983	-1.05483e-08	-0.00745943	-3.09837e-06	0.00187305	1.34418e-08
0.786675	-0.000280095	-1.75642e-08	-0.0119087	-4.96073e-06	0.00263619	2.61377e-08
0.865343	-0.000356805	-2.75925e-08	-0.0180881	-7.55481e-06	0.0034676	4.63024e-08
0.94401	-0.000420371	-4.12875e-08	-0.0263884	-1.10483e-05	0.00427047	7.64281e-08
1.02268	-0.000451396	-5.92643e-08	-0.0372365	-1.56239e-05	0.00490175	1.19263e-07
1.10134	-0.000424404	-8.20424e-08	-0.0510942	-2.14791e-05	0.00516782	1.77698e-07
1.18001	-0.000307669	-1.09985e-07	-0.0684572	-2.8825e-05	0.00482174	2.54625e-07
1.25868	-6.33463e-05	-1.43234e-07	-0.0898535	-3.78851e-05	0.00356306	3.52767e-07
1.33735	0.000352064	-1.81639e-07	-0.115842	-4.88945e-05	0.00104018	4.7448e-07
1.41601	0.000986901	-2.24695e-07	-0.147013	-6.20986e-05	-0.00314452	6.21534e-07
1.49468	0.00189316	-2.71478e-07	-0.183983	-7.77521e-05	-0.00942645	7.94888e-07
1.57335	0.00312492	-3.20587e-07	-0.227397	-9.61174e-05	-0.0182675	9.9445e-07
1.65202	0.00473648	-3.701e-07	-0.277924	-0.000117464	-0.0301417	1.21884e-06
1.73068	0.00678007	-4.17535e-07	-0.336257	-0.000142067	-0.045518	1.46518e-06
1.80935	0.00930335	-4.59837e-07	-0.403112	-0.000170206	-0.0648404	1.72886e-06
1.88802	0.0123466	-4.93374e-07	-0.479224	-0.000202163	-0.0885054	2.00338e-06
1.96669	0.0159399	-5.13957e-07	-0.565346	-0.000238224	-0.116838	2.28024e-06
2.04535	0.0201001	-5.16881e-07	-0.662251	-0.000278679	-0.150068	2.5488e-06
2.12402	0.0248276	-4.96987e-07	-0.770731	-0.000323817	-0.188302	2.7963e-06
2.20269	0.0301036	-4.48752e-07	-0.891587	-0.000373929	-0.231499	3.00784e-06
2.28136	0.035887	-3.66398e-07	-1.02563	-0.000429306	-0.279442	3.1665e-06
2.36002	0.0421123	-2.4403e-07	-1.17366	-0.00049024	-0.331719	3.25353e-06
2.43869	0.048687	-7.57942e-08	-1.33652	-0.000557023	-0.387699	3.24859e-06
2.51736	0.0554901	1.43944e-07	-1.51501	-0.00062995	-0.446517	3.13007e-06
2.59603	0.0623713	4.20404e-07	-1.70996	-0.000709313	-0.507057	2.87555e-06
2.67469	0.06915	7.58179e-07	-1.92217	-0.00079541	-0.56795	2.46227e-06
2.75336	0.0756163	1.16102e-06	-2.15247	-0.000888541	-0.627566	1.86768e-06
2.83203	0.0815316	1.63159e-06	-2.40164	-0.00098901	-0.684023	1.07008e-06
2.9107	0.0866308	2.17128e-06	-2.67047	-0.00109713	-0.735195	4.93387e-08
2.98936	0.0906252	2.77994e-06	-2.95973	-0.00121321	-0.778734	-1.21243e-06
3.06803	0.0932064	3.45571e-06	-3.27016	-0.00133757	-0.812094	-2.73006e-06
3.1467	0.0940507	4.19479e-06	-3.60251	-0.00147056	-0.832568	-4.51459e-06
3.22537	0.092824	4.99141e-06	-3.95745	-0.00161213	-0.837291	-6.57318e-06
3.30403	0.0891926	5.83726e-06	-4.3357	-0.00176338	-0.823441	-8.90554e-06
3.3827	0.0828236	6.722e-06	-4.73789	-0.00192433	-0.788077	-1.15074e-05
3.46137	0.0733976	7.63284e-06	-5.16465	-0.00209535	-0.728345	-1.43672e-05
3.54004	0.0606157	8.55456e-06	-5.61655	-0.00227684	-0.641512	-1.74659e-05
3.6187	0.0442089	9.46958e-06	-6.09414	-0.00246921	-0.525043	-2.0777e-05
3.69737	0.0239472	1.03581e-05	-6.59794	-0.00267289	-0.376674	-2.42656e-05
3.77604	-0.000350957	1.11981e-05	-7.12843	-0.00288831	-0.194497	-2.78887e-05
3.85471	-0.0288055	1.19659e-05	-7.6861	-0.00311691	0.022832	-3.15939e-05
3.93337	-0.0614826	1.26357e-05	-8.27121	-0.00335685	0.276583	-3.53236e-05
4.01204	-0.0983568	1.3181e-05	-8.88421	-0.00361024	0.566911	-3.90085e-05
4.09071	-0.139327	1.3574e-05	-9.52541	-0.00387721	0.893571	-4.25737e-05
4.16938	-0.184201	1.37866e-05	-10.1951	-0.00415823	1.25555	-4.5937e-05
4.24804	-0.232687	1.37906e-05	-10.8934	-0.00445379	1.65104	-4.90104e-05
4.32671	-0.284396	1.35586e-05	-11.6207	-0.00476434	2.07743	-5.17009e-05
4.40538	-0.338832	1.30639e-05	-12.377	-0.00508968	2.53128	-5.39115e-05
4.48405	-0.395391	1.22822e-05	-13.1625	-0.00543112	3.0081	-5.55436e-05
4.56271	-0.453365	1.11916e-05	-13.9773	-0.00578929	3.50263	-5.64981e-05
4.64138	-0.511943	9.77319e-06	-14.8214	-0.00616506	4.00867	-5.66776e-05
4.72005	-0.570218	8.01017e-06	-15.6948	-0.00655654	4.51936	-5.59842e-05
4.79872	-0.627186	5.89241e-06	-16.5975	-0.00696584	5.02675	-5.43297e-05
4.87738	-0.681762	3.41397e-06	-17.5296	-0.00739378	5.52226	-5.16321e-05
4.95605	-0.732793	5.72805e-07	-18.4908	-0.00783863	5.99668	-4.78143e-05
5.03472	-0.779064	-2.62589e-06	-19.4811	-0.00830067	6.44016	-4.28135e-05
5.11339	-0.81932	-6.16959e-06	-20.5004	-0.00878168	6.84241	-3.65834e-05
5.19205	-0.852281	-1.00405e-05	-21.5485	-0.00928088	7.19286	-2.90886e-05
5.27072	-0.876665	-1.42137e-05	-22.6251	-0.00979768	7.4807	-2.03112e-05
5.34939	-0.891208	-1.86559e-05	-23.7303	-0.0103331	7.69523	-1.02557e-05
5.42806	-0.894685	-2.33271e-05	-24.8638	-0.0108877	7.82593	1.05353e-06
5.50672	-0.88593	-2.81818e-05	-26.0251	-0.0114581	7.86234	1.35785e-05
5.58539	-0.863877	-3.31646e-05	-27.2142	-0.0120467	7.79502	2.72459e-05
5.66406	-0.827564	-3.82155e-05	-28.4306	-0.0126513	7.61487	4.19685e-05
5.74273	-0.776178	-4.32664e-05	-29.6743	-0.0132737	7.31421	5.76265e-05
5.82139	-0.709058	-4.82454e-05	-30.9447	-0.0139114	6.88602	7.4085e-05
5.90006	-0.625738	-5.30743e-05	-32.2414	-0.0145643	6.32495	9.11799e-05
5.97873	-0.525956	-5.76712e-05	-33.5642	-0.0152319	5.62709	0.000108726
6.0574	-0.409676	-6.19507e-05	-34.9125	-0.0159121	4.79011	0.000126516
6.13606	-0.277127	-6.58256e-05	-36.2861	-0.016608	3.81431	0.000144319
6.21473	-0.128765	-6.92075e-05	-37.6841	-0.0173146	2.70075	0.000161894
6.2934	0.0346595	-7.20085e-05	-39.1063	-0.0180324	1.45352	0.000178979
6.37207	0.212124	-7.41422e-05	-40.5519	-0.0187605	0.0786919	0.000195299
6.45073	0.402328	-7.55253e-05	-42.0203	-0.0194971	-1.4155	0.000210571
6.5294	0.603678	-7.60796e-05	-43.511	-0.0202431	-3.01806	0.000224505
6.60807	0.814319	-7.5732e-05	-45.023	-0.020996	-4.71625	0.000236811
6.68674	1.03212	-7.4418e-05	-46.5556	-0.021756	-6.49462	0.000247198
6.7654	1.25472	-7.20806e-05	-48.1078	-0.0225203	-8.33595	0.000255384
6.84407	1.47951	-6.86738e-05	-49.6788	-0.0232878	-10.2207	0.000261097
6.92274	1.70368	-6.41646e-05	-51.2675	-0.0240598	-12.127	0.000264081
7.00141	1.92424	-5.85303e-05	-52.8727	-0.0248326	-14.0321	0.000264099
7.08007	2.13805	-5.17648e-05	-54.4935	-0.0256078	-15.9109	0.000260942
7.15874	2.34189	-4.38766e-05	-56.1285	-0.0263853	-17.7373	0.00025443
7.23741	2.53245	-3.48867e-05	-57.7762	-0.0271606	-19.4847	0.000244411
7.31608	2.70642	-2.48348e-05	-59.4352	-0.0279331	-21.1253	0.000230774
7.39474	2.86047	-1.37789e-05	-61.1041	-0.0287046	-22.6311	0.000213455
7.47341	2.99139	-1.79352e-06	-62.7814	-0.029476	-23.9742	0.000192433
7.55208	3.09606	1.10333e-05	-64.4652	-0.0302438	-25.1274	0.000167728
7.63075	3.17153	2.45938e-05	-66.1538	-0.0310091	-26.0641	0.000139416
7.70941	3.21507	3.87658e-05	-67.8455	-0.0317709	-26.7592	0.000107624
7.78808	3.22424	5.34112e-05	-69.5382	-0.0325295	-27.1891	7.25299e-05
7.86675	3.19686	6.83782e-05	-71.2301	-0.0332852	-27.3324	3.43672e-05
7.94542	3.13116	8.35021e-05	-72.919	-0.034038	-27.1703	-6.57892e-06
8.02408	3.02572	9.86082e-05	-74.6029	-0.0347864	-26.6867	-4.99763e-05
8.10275	2.8796	0.000113509	-76.2799	-0.0355371	-25.8694	-9.54237e-05
8.18142	2.69228	0.000128014	-77.9474	-0.036284	-24.7086	-0.000142504
8.26009	2.46377	0.000141927	-79.6036	-0.0370302	-23.1995	-0.000190734
8.33875	2.19458	0.000155046	-81.246	-0.0377752	-21.3407	-0.000239601
8.41742	1.88576	0.000167172	-82.8726	-0.038523	-19.1361	-0.000288549
8.49609	1.53891	0.000178107	-84.4812	-0.0392724	-16.593	-0.000337004
8.57476	1.15616	0.000187659	-86.0696	-0.0400261	-13.7243	-0.000384364
8.65342	0.740208	0.000195643	-87.6355	-0.0407827	-10.5465	-0.000430017
8.73209	0.294259	0.000201887	-89.1769	-0.0415433	-7.08156	-0.000473341
8.81076	-0.177942	0.00020623	-90.6917	-0.0423096	-3.35573	-0.00051371
8.88943	-0.672136	0.00020853	-92.1782	-0.0430882	0.599187	-0.000550506
8.96809	-1.18368	0.00020866	-93.6341	-0.0438714	4.74982	-0.000583139
9.04676	-1.70743	0.000206517	-95.0577	-0.0446655	9.05633	-0.000611032
9.12543	-2.2379	0.000202021	-96.4475	-0.0454716	13.4763	-0.000633646
9.2041	-2.76931	0.000195116	-97.8016	-0.0462883	17.9643	-0.000650484
9.28276	-3.29557	0.000185774	-99.1184	-0.0471149	22.4723	-0.000661097
9.36143	-3.81041	0.000173995	-100.397	-0.0479555	26.949	-0.000665095
9.4401	-4.30744	0.00015981	-101.635	-0.0488089	31.3424	-0.000662151
9.51877	-4.78021	0.000143277	-102.833	-0.0496752	35.5992	-0.000652008
9.59743	-5.22229	0.000124486	-103.989	-0.0505529	39.6658	-0.000634487
9.6761	-5.62735	0.000103564	-105.103	-0.0514489	43.4878	-0.000609499
9.75477	-5.98927	8.06514e-05	-106.173	-0.0523503	47.0138	-0.000577013
9.83344	-6.30218	5.59355e-05	-107.199	-0.0532653	50.1919	-0.00053712
9.9121	-6.56057	2.96224e-05	-108.18	-0.0541905	52.9735	-0.000489984
9.99077	-6.75939	1.94528e-06	-109.118	-0.0551233	55.3128	-0.000435858
10.0694	-6.89407	-2.68324e-05	-110.01	-0.0560681	57.1675	-0.000375108
10.1481	-6.96067	-5.64376e-05	-110.858	-0.0570144	58.4995	-0.000308151
10.2268	-6.95592	-8.65659e-05	-111.661	-0.0579662	59.2758	-0.000235528
10.3054	-6.87724	-0.000116905	-112.42	-0.0589176	59.4683	-0.000157839
10.3841	-6.72291	-0.000147122	-113.135	-0.0598712	59.0555	-7.57857e-05
10.4628	-6.49201	-0.00017688	-113.807	-0.0608253	58.0221	9.86836e-06
10.5414	-6.1845	-0.000205842	-114.436	-0.0617713	56.3585	9.83169e-05
10.6201	-5.80129	-0.000233659	-115.022	-0.0627096	54.0631	0.000188668
10.6988	-5.34421	-0.000259993	-115.566	-0.0636376	51.1413	0.000279992
10.7774	-4.81603	-0.000284508	-116.069	-0.0645525	47.6057	0.000371321
10.8561	-4.22046	-0.000306883	-116.532	-0.0654514	43.4764	0.000461661
10.9348	-3.56214	-0.000326811	-116.955	-0.0663316	38.7808	0.00055
11.0134	-2.8466	-0.000344002	-117.338	-0.0671903	33.5534	0.000635324
11.0921	-2.08018	-0.000358195	-117.684	-0.0680246	27.8357	0.000716625
11.1708	-1.27007	-0.000369151	-117.991	-0.0688317	21.6759	0.000792918
11.2495	-0.4241	-0.000376664	-118.261	-0.0696073	15.1281	0.00086325
11.3281	0.449186	-0.000380562	-118.494	-0.0703522	8.25308	0.000926704
11.4068	1.34076	-0.00038071	-118.692	-0.0710619	1.11577	0.00098243
11.4855	2.24113	-0.000377011	-118.853	-0.0717342	-6.21409	0.00102964
11.5641	3.14048	-0.000369412	-118.978	-0.0723702	-13.6622	0.00106763
11.6428	4.02883	-0.000357897	-119.068	-0.0729606	-21.1536	0.00109578
11.7215	4.89605	-0.0003425	-119.123	-0.0735069	-28.6089	0.00111356
11.8001	5.73209	-0.000323297	-119.142	-0.0740071	-35.948	0.00112055
11.8788	6.52708	-0.000300405	-119.125	-0.0744559	-43.0914	0.00111646
11.9575	7.27141	-0.000273995	-119.072	-0.0748592	-49.9579	0.0011011
12.0361	7.95594	-0.000244272	-118.983	-0.0752118	-56.4702	0.0010744
12.1148	8.57207	-0.000211484	-118.857	-0.0755126	-62.5524	0.00103642
12.1935	9.11184	-0.000175922	-118.695	-0.0757629	-68.132	0.000987361
12.2721	9.56811	-0.000137906	-118.494	-0.075958	-73.1414	0.000927528
12.3508	9.93458	-9.77961e-05	-118.254	-0.0760997	-77.5174	0.000857367
12.4295	10.2059	-5.598e-05	-117.975	-0.0761879	-81.203	0.000777441
12.5081	10.3778	-1.28706e-05	-117.656	-0.0762228	-84.1481	0.000688432
12.5868	10.447	3.10977e-05	-117.296	-0.0762052	-86.3099	0.000591134
12.6655	10.4115	7.5474e-05	-116.894	-0.0761359	-87.6537	0.000486443
12.7441	10.2704	0.000119796	-116.45	-0.0760163	-88.1532	0.00037535
12.8228	10.024	0.000163596	-115.962	-0.0758481	-87.7912	0.000258933
12.9015	9.67368	0.000206406	-115.429	-0.0756332	-86.5597	0.000138338
12.9801	9.22222	0.000247762	-114.851	-0.07537	-84.4597	1.47618e-05
13.0588	8.6734	0.000287207	-114.228	-0.0750692	-81.5033	-0.000110512
13.1375	8.03216	0.000324303	-113.558	-0.0747331	-77.7113	-0.000236197
13.2161	7.30444	0.000358638	-112.841	-0.0743586	-73.1126	-0.000361012
13.2948	6.49721	0.000389817	-112.077	-0.0739545	-67.7474	-0.000483627
13.3735	5.61829	0.000417486	-111.265	-0.0735167	-61.6618	-0.000602774
13.4521	4.67643	0.000441314	-110.405	-0.0730612	-54.915	-0.000717145
13.5308	3.68099	0.00046102	-109.498	-0.0725843	-47.569	-0.00082554
13.6095	2.642	0.000476364	-108.543	-0.0720924	-39.6953	-0.000926785
13.6881	1.56996	0.000487149	-107.542	-0.0715897	-31.3711	-0.00101978
13.7668	0.475786	0.00049323	-106.493	-0.0710781	-22.6783	-0.00110353
13.8455	-0.629287	0.000494514	-105.399	-0.0705693	-13.7061	-0.0011771
13.9241	-1.73397	0.000490956	-104.26	-0.0700609	-4.54299	-0.00123969
14.0028	-2.82688	0.000482569	-103.078	-0.0695588	4.71751	-0.00129062
14.0815	-3.89673	0.000469414	-101.853	-0.0690671	13.9811	-0.00132932
14.1601	-4.93243	0.000451611	-100.587	-0.0685912	23.1529	-0.00135537
14.2388	-5.92326	0.000429323	-99.2824	-0.0681297	32.1403	-0.00136847
14.3175	-6.85888	0.00040277	-97.9403	-0.0676911	40.8503	-0.00136849
14.3962	-7.72958	0.000372209	-96.5624	-0.0672693	49.1961	-0.0013554
14.4748	-8.52618	0.000337957	-95.1518	-0.0668761	57.0906	-0.00132935
14.5535	-9.24033	0.000300359	-93.7105	-0.0665112	64.4544	-0.00129064
14.6322	-9.86457	0.000259789	-92.2404	-0.0661685	71.2151	-0.00123964
14.7108	-10.3922	0.000216682	-90.7454	-0.065863	77.303	-0.00117696
14.7895	-10.8178	0.000171461	-89.2268	-0.0655815	82.6602	-0.00110323
14.8682	-11.1368	0.000124596	-87.6879	-0.0653291	87.2343	-0.00101925
14.9468	-11.3458	7.65645e-05	-86.1315	-0.0651035	90.9821	-0.000925921
15.0255	-11.4426	2.78564e-05	-84.5602	-0.0649038	93.8693	-0.000824223
15.1042	-11.4262	-2.10209e-05	-82.9777	-0.0647374	95.8712	-0.000715278
15.1828	-11.297	-6.95846e-05	-81.3863	-0.0645953	96.9728	-0.000600199
15.2615	-11.0563	-0.000117347	-79.7887	-0.0644751	97.1684	-0.000480184
15.3402	-10.7069	-0.000163831	-78.188	-0.0643767	96.4621	-0.000356487
15.4188	-10.2528	-0.00020858	-76.5866	-0.0642944	94.8669	-0.000230363
15.4975	-9.69917	-0.000251147	-74.9881	-0.064236	92.4074	-0.00010315
15.5762	-9.05227	-0.000291132	-73.3942	-0.06419	89.1137	2.39192e-05
15.6548	-8.31947	-0.000328153	-71.8078	-0.0641566	85.0262	0.000149564
15.7335	-7.50913	-0.000361868	-70.231	-0.0641315	80.1926	0.00027256
15.8122	-6.63054	-0.000391969	-68.6664	-0.0641175	74.6695	0.000391688
15.8908	-5.69372	-0.000418195	-67.1157	-0.0641064	68.5169	0.000505847
15.9695	-4.70939	-0.000440326	-65.5809	-0.0640966	61.8025	0.000613968
16.0482	-3.68884	-0.000458189	-64.0638	-0.0640867	54.5992	0.000715061
16.1268	-2.64372	-0.000471656	-62.566	-0.064075	46.9836	0.000808233
16.2055	-1.58586	-0.000480649	-61.0884	-0.0640528	39.0329	0.00089271
16.2842	-0.527279	-0.000485138	-59.6325	-0.0640227	30.8308	0.000967785
16.3628	0.520116	-0.000485143	-58.1994	-0.0639827	22.4607	0.00103288
16.4415	1.54476	-0.000480724	-56.7894	-0.0639234	14.0031	0.00108755
16.5202	2.53544	-0.000471991	-55.403	-0.0638406	5.54048	0.00113146
16.5988	3.4814	-0.000459101	-54.0412	-0.0637385	-2.84336	0.00116436
16.6775	4.37272	-0.000442247	-52.7038	-0.0636094	-11.0712	0.00118617
16.7562	5.20029	-0.000421663	-51.391	-0.063451	-19.0671	0.0011969
16.8348	5.956	-0.000397615	-50.1027	-0.063257	-26.7602	0.00119668
16.9135	6.63277	-0.000370408	-48.8387	-0.0630267	-34.0827	0.00118576
16.9922	7.22475	-0.000340361	-47.5984	-0.0627522	-40.974	0.00116449
17.0708	7.72729	-0.000307827	-46.3815	-0.0624298	-47.3778	0.00113331
17.1495	8.137	-0.000273182	-45.1877	-0.0620597	-53.2438	0.00109279
17.2282	8.45185	-0.000236805	-44.0161	-0.0616354	-58.5294	0.00104353
17.3069	8.67109	-0.000199094	-42.8664	-0.0611553	-63.1985	0.000986245
17.3855	8.79528	-0.000160453	-41.7378	-0.0606176	-67.2224	0.000921716
17.4642	8.82622	-0.000121274	-40.6295	-0.0600155	-70.5798	0.000850746
17.5429	8.76688	-8.19598e-05	-39.541	-0.059349	-73.2567	0.00077421
17.6215	8.62133	-4.28985e-05	-38.4715	-0.0586165	-75.2463	0.000693009
17.7002	8.39461	-4.45697e-06	-37.4202	-0.057811	-76.5484	0.000608028
17.7789	8.09271	3.29759e-05	-36.3874	-0.0569493	-77.1728	0.000520305
17.8575	7.72224	6.90876e-05	-35.3716	-0.0560157	-77.1317	0.00043067
17.9362	7.29052	0.000103553	-34.3729	-0.0550164	-76.4464	0.000340076
18.0149	6.80527	0.000136083	-33.3907	-0.0539537	-75.1434	0.000249421
18.0935	6.27455	0.000166418	-32.4247	-0.0528304	-73.2547	0.000159571
18.1722	5.70661	0.000194328	-31.4748	-0.0516521	-70.8179	7.13627e-05
18.2509	5.10965	0.000219623	-30.5406	-0.0504175	-67.872	-1.44666e-05
18.3295	4.49187	0.000242139	-29.6223	-0.0491378	-64.4638	-9.71612e-05
18.4082	3.86118	0.000261753	-28.7197	-0.0478162	-60.6401	-0.000176085
18.4869	3.22522	0.000278375	-27.8331	-0.0464626	-56.4525	-0.000250635
18.5655	2.5911	0.000291956	-26.9623	-0.0450797	-51.9505	-0.000320327
18.6442	1.96546	0.000302476	-26.1074	-0.0436734	-47.1855	-0.000384737
18.7229	1.35451	0.000309952	-25.2691	-0.0422586	-42.2143	-0.000443474
18.8015	0.763713	0.000314435	-24.4475	-0.0408414	-37.0883	-0.00049628
18.8802	0.197856	0.000316002	-23.6426	-0.0394267	-31.8569	-0.000542978
18.9589	-0.338832	0.000314762	-22.8549	-0.038024	-26.5709	-0.000583446
19.0375	-0.842801	0.000310848	-22.0846	-0.0366413	-21.2778	-0.000617649
19.1162	-1.3111	0.000304418	-21.3322	-0.0352888	-16.0241	-0.00064562
19.1949	-1.74149	0.000295641	-20.5977	-0.0339684	-10.8487	-0.000667468
19.2735	-2.13222	0.000284711	-19.8815	-0.0326895	-5.79178	-0.000683356
19.3522	-2.4821	0.000271823	-19.1835	-0.0314552	-0.886715	-0.000693499
19.4309	-2.79034	0.000257205	-18.5046	-0.030277	3.8321	-0.000698176
19.5095	-3.05668	0.000241071	-17.8446	-0.029158	8.33853	-0.000697701
19.5882	-3.28127	0.000223634	-17.2036	-0.0280995	12.6108	-0.000692409
19.6669	-3.46456	0.000205111	-16.5814	-0.0271038	16.6299	-0.000682658
19.7455	-3.60727	0.000185734	-15.9786	-0.0261788	20.3784	-0.000668866
19.8242	-3.71047	0.000165706	-15.3949	-0.0253239	23.8458	-0.000651419
19.9029	-3.77541	0.000145231	-14.8303	-0.0245417	27.0239	-0.000630726
19.9815	-3.80361	0.000124492	-14.2845	-0.0238304	29.908	-0.00060716
20.0602	-3.79675	0.000103679	-13.7576	-0.0231935	32.4961	-0.000581138
20.1389	-3.75671	8.29412e-05	-13.2489	-0.0226268	34.7886	-0.000552981
20.2175	-3.68554	6.2436e-05	-12.7584	-0.0221316	36.7882	-0.000523054
20.2962	-3.58547	4.22979e-05	-12.2858	-0.0217068	38.4995	-0.000491677
20.3749	-3.45892	2.26459e-05	-11.8306	-0.0213511	39.9284	-0.000459137
20.4536	-3.30847	3.584e-06	-11.3925	-0.0210629	41.0821	-0.000425694
20.5322	-3.13684	-1.47987e-05	-10.9711	-0.0208404	41.9682	-0.000391573
20.6109	-2.94695	-3.2427e-05	-10.5658	-0.0206814	42.5951	-0.000356971
20.6896	-2.74184	-4.92384e-05	-10.1762	-0.0205838	42.971	-0.000322051
20.7682	-2.52468	-6.51825e-05	-9.8017	-0.020545	43.1041	-0.000286949
20.8469	-2.29879	-8.02171e-05	-9.44198	-0.0205636	43.0035	-0.000251791
20.9256	-2.06737	-9.43177e-05	-9.09591	-0.020631	42.6712	-0.000216591
21.0042	-1.83399	-0.00010745	-8.76371	-0.0207519	42.1217	-0.000181522
21.0829	-1.60192	-0.000119599	-8.44453	-0.0209195	41.358	-0.000146597
21.1616	-1.37443	-0.000130753	-8.13782	-0.0211299	40.3862	-0.000111861
21.2402	-1.15467	-0.000140898	-7.84307	-0.0213788	39.2117	-7.73592e-05
21.3189	-0.945568	-0.000150025	-7.55979	-0.0216615	37.8395	-4.31352e-05
21.3976	-0.749781	-0.000158126	-7.28751	-0.0219726	36.2745	-9.2387e-06
21.4762	-0.569638	-0.000165192	-7.02579	-0.0223065	34.5218	2.42706e-05
21.5549	-0.407067	-0.000171213	-6.77424	-0.0226567	32.5866	5.73196e-05
21.6336	-0.26354	-0.000176179	-6.5325	-0.0230165	30.4749	8.98188e-05
21.7122	-0.140028	-0.000180078	-6.30029	-0.0233784	28.1932	0.000121659
21.7909	-0.0369676	-0.000182897	-6.07735	-0.0237347	25.7493	0.000152712
21.8696	0.0457627	-0.000184625	-5.86351	-0.0240769	23.1521	0.000182826
