time[s]	Surge [m]	Sway [m]	Heave [m]	Roll [rad]	Pitch [rad]	Yaw [rad]	
300.009	-1.04679	0	-0.161541	0	-0.00250049	0
300.05	-1.04048	0	-0.161345	0	-0.00240733	0
300.09	-1.03413	0	-0.161147	0	-0.00231389	0
300.13	-1.02774	0	-0.160948	0	-0.00222018	0
300.17	-1.0213	0	-0.160746	0	-0.0021262	0
300.21	-1.01482	0	-0.160543	0	-0.00203198	0
300.25	-1.00829	0	-0.160339	0	-0.0019375	0
300.29	-1.00172	0	-0.160132	0	-0.00184279	0
300.33	-0.995114	0	-0.159924	0	-0.00174785	0
300.37	-0.988464	0	-0.159714	0	-0.0016527	0
300.41	-0.981772	0	-0.159502	0	-0.00155732	0
300.45	-0.975041	0	-0.159288	0	-0.00146175	0
300.49	-0.96827	0	-0.159073	0	-0.00136598	0
300.53	-0.96146	0	-0.158855	0	-0.00127003	0
300.57	-0.954613	0	-0.158636	0	-0.00117389	0
300.61	-0.947729	0	-0.158415	0	-0.0010776	0
300.65	-0.940808	0	-0.158193	0	-0.000981142	0
300.69	-0.933852	0	-0.157968	0	-0.000884537	0
300.73	-0.926861	0	-0.157742	0	-0.000787791	0
300.77	-0.919836	0	-0.157514	0	-0.000690916	0
300.81	-0.912776	0	-0.157284	0	-0.00059391	0
300.85	-0.905683	0	-0.157052	0	-0.000496792	0
300.89	-0.898558	0	-0.156818	0	-0.000399567	0
300.93	-0.891401	0	-0.156582	0	-0.000302243	0
300.97	-0.884212	0	-0.156345	0	-0.000204827	0
301.01	-0.876994	0	-0.156106	0	-0.000107338	0
301.05	-0.869747	0	-0.155864	0	-9.77678e-06	0
301.09	-0.86247	0	-0.155621	0	8.7845e-05	0
301.13	-0.855166	0	-0.155376	0	0.000185519	0
301.17	-0.847835	0	-0.155129	0	0.000283231	0
301.21	-0.840476	0	-0.154881	0	0.000380986	0
301.25	-0.833092	0	-0.15463	0	0.000478764	0
301.29	-0.825682	0	-0.154377	0	0.00057656	0
301.33	-0.818248	0	-0.154123	0	0.000674363	0
301.37	-0.810789	0	-0.153866	0	0.00077217	0
301.41	-0.803309	0	-0.153608	0	0.000869956	0
301.45	-0.795806	0	-0.153347	0	0.000967725	0
301.49	-0.788281	0	-0.153085	0	0.00106546	0
301.53	-0.780736	0	-0.152821	0	0.00116316	0
301.57	-0.773173	0	-0.152555	0	0.0012608	0
301.61	-0.765588	0	-0.152286	0	0.0013584	0
301.65	-0.757986	0	-0.152016	0	0.00145593	0
301.69	-0.750365	0	-0.151744	0	0.00155338	0
301.73	-0.742728	0	-0.15147	0	0.00165074	0
301.77	-0.735075	0	-0.151194	0	0.00174801	0
301.81	-0.727407	0	-0.150916	0	0.00184518	0
301.85	-0.719724	0	-0.150636	0	0.00194224	0
301.89	-0.712026	0	-0.150354	0	0.00203917	0
301.93	-0.704316	0	-0.150069	0	0.00213597	0
301.97	-0.696593	0	-0.149783	0	0.00223264	0
302.01	-0.688858	0	-0.149495	0	0.00232916	0
302.05	-0.681113	0	-0.149205	0	0.00242552	0
302.09	-0.673357	0	-0.148912	0	0.00252172	0
302.13	-0.665591	0	-0.148618	0	0.00261774	0
302.17	-0.657818	0	-0.148321	0	0.00271358	0
302.21	-0.650036	0	-0.148023	0	0.00280923	0
302.25	-0.642246	0	-0.147722	0	0.00290468	0
302.29	-0.63445	0	-0.147419	0	0.00299993	0
302.33	-0.626647	0	-0.147114	0	0.00309497	0
302.37	-0.618838	0	-0.146807	0	0.00318978	0
302.41	-0.611023	0	-0.146497	0	0.00328437	0
302.45	-0.603206	0	-0.146186	0	0.00337871	0
302.49	-0.595385	0	-0.145872	0	0.00347282	0
302.53	-0.587561	0	-0.145556	0	0.00356667	0
302.57	-0.579734	0	-0.145238	0	0.00366026	0
302.61	-0.571906	0	-0.144918	0	0.00375358	0
302.65	-0.564076	0	-0.144595	0	0.00384664	0
302.69	-0.556245	0	-0.14427	0	0.00393942	0
302.73	-0.548414	0	-0.143943	0	0.00403191	0
302.77	-0.540584	0	-0.143614	0	0.00412411	0
302.81	-0.532753	0	-0.143282	0	0.00421602	0
302.85	-0.524925	0	-0.142947	0	0.00430761	0
302.89	-0.517099	0	-0.142611	0	0.00439889	0
302.93	-0.509276	0	-0.142272	0	0.00448985	0
302.97	-0.501456	0	-0.14193	0	0.00458048	0
303.01	-0.49364	0	-0.141586	0	0.00467079	0
303.05	-0.485827	0	-0.14124	0	0.00476075	0
303.09	-0.478021	0	-0.140891	0	0.00485037	0
303.13	-0.47022	0	-0.14054	0	0.00493963	0
303.17	-0.462425	0	-0.140186	0	0.00502854	0
303.21	-0.454637	0	-0.139829	0	0.00511707	0
303.25	-0.446857	0	-0.13947	0	0.00520523	0
303.29	-0.439084	0	-0.139109	0	0.00529302	0
303.33	-0.43132	0	-0.138744	0	0.00538041	0
303.37	-0.423565	0	-0.138377	0	0.00546741	0
303.411	-0.41582	0	-0.138007	0	0.00555401	0
303.451	-0.408085	0	-0.137635	0	0.0056402	0
303.491	-0.400362	0	-0.13726	0	0.00572596	0
303.531	-0.392651	0	-0.136882	0	0.00581131	0
303.571	-0.384954	0	-0.136501	0	0.00589621	0
303.611	-0.377269	0	-0.136117	0	0.00598067	0
303.651	-0.3696	0	-0.135731	0	0.00606468	0
303.691	-0.361945	0	-0.135342	0	0.00614824	0
303.731	-0.354306	0	-0.134949	0	0.00623132	0
303.771	-0.346684	0	-0.134554	0	0.00631393	0
303.811	-0.339078	0	-0.134156	0	0.00639606	0
303.851	-0.331491	0	-0.133755	0	0.00647769	0
303.891	-0.323924	0	-0.13335	0	0.00655882	0
303.931	-0.316376	0	-0.132943	0	0.00663943	0
303.971	-0.30885	0	-0.132533	0	0.00671952	0
304.011	-0.301345	0	-0.132119	0	0.00679908	0
304.051	-0.293864	0	-0.131703	0	0.00687809	0
304.091	-0.286405	0	-0.131283	0	0.00695656	0
304.131	-0.278971	0	-0.13086	0	0.00703447	0
304.171	-0.271562	0	-0.130434	0	0.00711182	0
304.211	-0.264179	0	-0.130005	0	0.00718858	0
304.251	-0.256823	0	-0.129572	0	0.00726476	0
304.291	-0.249496	0	-0.129136	0	0.00734034	0
304.331	-0.242196	0	-0.128697	0	0.00741532	0
304.371	-0.234927	0	-0.128255	0	0.00748968	0
304.411	-0.227687	0	-0.127809	0	0.00756342	0
304.451	-0.220479	0	-0.12736	0	0.00763652	0
304.491	-0.213303	0	-0.126907	0	0.00770899	0
304.531	-0.20616	0	-0.126451	0	0.00778081	0
304.571	-0.199051	0	-0.125992	0	0.00785196	0
304.611	-0.191977	0	-0.125529	0	0.00792245	0
304.651	-0.184939	0	-0.125062	0	0.00799227	0
304.691	-0.177937	0	-0.124592	0	0.00806139	0
304.731	-0.170971	0	-0.124119	0	0.00812984	0
304.771	-0.164044	0	-0.123642	0	0.00819758	0
304.811	-0.157154	0	-0.123161	0	0.00826462	0
304.851	-0.150303	0	-0.122677	0	0.00833094	0
304.891	-0.143492	0	-0.122189	0	0.00839655	0
304.931	-0.136722	0	-0.121698	0	0.00846143	0
304.971	-0.129993	0	-0.121202	0	0.00852558	0
305.011	-0.123305	0	-0.120704	0	0.00858899	0
305.051	-0.116661	0	-0.120201	0	0.00865165	0
305.091	-0.110059	0	-0.119695	0	0.00871356	0
305.131	-0.1035	0	-0.119185	0	0.00877472	0
305.171	-0.0969851	0	-0.118671	0	0.00883512	0
305.211	-0.0905144	0	-0.118154	0	0.00889475	0
305.251	-0.0840887	0	-0.117632	0	0.00895361	0
305.291	-0.0777085	0	-0.117107	0	0.0090117	0
305.331	-0.0713747	0	-0.116578	0	0.009069	0
305.371	-0.0650861	0	-0.116045	0	0.00912553	0
305.411	-0.0588445	0	-0.115509	0	0.00918126	0
305.451	-0.0526498	0	-0.114968	0	0.00923621	0
305.491	-0.0465024	0	-0.114424	0	0.00929036	0
305.531	-0.0404022	0	-0.113875	0	0.00934372	0
305.571	-0.0343512	0	-0.113323	0	0.00939627	0
305.611	-0.0283483	0	-0.112767	0	0.00944802	0
305.651	-0.0223944	0	-0.112207	0	0.00949897	0
305.691	-0.0164898	0	-0.111642	0	0.0095491	0
305.731	-0.0106353	0	-0.111074	0	0.00959842	0
305.771	-0.00482936	0	-0.110502	0	0.00964692	0
305.811	0.00092609	0	-0.109926	0	0.00969461	0
305.851	0.00663142	0	-0.109345	0	0.00974148	0
305.891	0.0122862	0	-0.108761	0	0.00978753	0
305.931	0.0178908	0	-0.108172	0	0.00983276	0
305.971	0.0234429	0	-0.10758	0	0.00987715	0
306.011	0.0289439	0	-0.106983	0	0.00992071	0
306.051	0.0343928	0	-0.106382	0	0.00996345	0
306.091	0.0397897	0	-0.105777	0	0.0100053	0
306.131	0.0451343	0	-0.105167	0	0.0100464	0
306.171	0.0504265	0	-0.104554	0	0.0100866	0
306.211	0.0556649	0	-0.103936	0	0.010126	0
306.251	0.0608501	0	-0.103314	0	0.0101645	0
306.291	0.0659814	0	-0.102688	0	0.0102022	0
306.331	0.0710585	0	-0.102058	0	0.0102391	0
306.371	0.0760806	0	-0.101423	0	0.010275	0
306.411	0.0810488	0	-0.100784	0	0.0103102	0
306.451	0.0859613	0	-0.100141	0	0.0103444	0
306.491	0.0908184	0	-0.0994932	0	0.0103778	0
306.531	0.0956195	0	-0.0988412	0	0.0104104	0
306.571	0.100365	0	-0.0981849	0	0.010442	0
306.611	0.105052	0	-0.0975242	0	0.0104728	0
306.651	0.109682	0	-0.0968592	0	0.0105027	0
306.691	0.114254	0	-0.0961897	0	0.0105318	0
306.731	0.118768	0	-0.0955159	0	0.0105599	0
306.772	0.123222	0	-0.0948376	0	0.0105872	0
306.812	0.127618	0	-0.0941549	0	0.0106135	0
306.852	0.131954	0	-0.0934677	0	0.010639	0
306.892	0.13623	0	-0.0927761	0	0.0106636	0
306.932	0.140445	0	-0.0920801	0	0.0106872	0
306.972	0.144598	0	-0.0913796	0	0.01071	0
307.012	0.148689	0	-0.0906745	0	0.0107318	0
307.052	0.152719	0	-0.089965	0	0.0107527	0
307.092	0.156685	0	-0.089251	0	0.0107727	0
307.132	0.160587	0	-0.0885325	0	0.0107918	0
307.172	0.164426	0	-0.0878095	0	0.0108099	0
307.212	0.1682	0	-0.0870819	0	0.0108271	0
307.252	0.171909	0	-0.0863499	0	0.0108433	0
307.292	0.175552	0	-0.0856133	0	0.0108586	0
307.332	0.179129	0	-0.0848721	0	0.010873	0
307.372	0.182639	0	-0.0841265	0	0.0108863	0
307.412	0.186082	0	-0.0833763	0	0.0108988	0
307.452	0.189457	0	-0.0826215	0	0.0109102	0
307.492	0.192765	0	-0.0818622	0	0.0109208	0
307.532	0.196003	0	-0.0810984	0	0.0109303	0
307.572	0.199173	0	-0.0803301	0	0.0109389	0
307.612	0.202273	0	-0.0795572	0	0.0109464	0
307.652	0.205303	0	-0.0787798	0	0.010953	0
307.692	0.208263	0	-0.0779978	0	0.0109587	0
307.732	0.211153	0	-0.0772114	0	0.0109633	0
307.772	0.213971	0	-0.0764204	0	0.010967	0
307.812	0.216718	0	-0.0756249	0	0.0109696	0
307.852	0.219394	0	-0.0748249	0	0.0109713	0
307.892	0.221997	0	-0.0740205	0	0.010972	0
307.932	0.224529	0	-0.0732115	0	0.0109717	0
307.972	0.226988	0	-0.0723981	0	0.0109704	0
308.012	0.229374	0	-0.0715802	0	0.0109681	0
308.052	0.231687	0	-0.0707579	0	0.0109648	0
308.092	0.233927	0	-0.0699311	0	0.0109605	0
308.132	0.236095	0	-0.0690999	0	0.0109552	0
308.172	0.238189	0	-0.0682644	0	0.0109489	0
308.212	0.24021	0	-0.0674244	0	0.0109417	0
308.252	0.242157	0	-0.06658	0	0.0109334	0
308.292	0.24403	0	-0.0657313	0	0.0109241	0
308.332	0.245831	0	-0.0648783	0	0.0109139	0
308.372	0.247558	0	-0.064021	0	0.0109026	0
308.412	0.249211	0	-0.0631593	0	0.0108904	0
308.452	0.250791	0	-0.0622934	0	0.0108772	0
308.492	0.252298	0	-0.0614232	0	0.010863	0
308.532	0.253731	0	-0.0605487	0	0.0108478	0
308.572	0.255091	0	-0.0596701	0	0.0108316	0
308.612	0.256377	0	-0.0587872	0	0.0108145	0
308.652	0.257591	0	-0.0579002	0	0.0107963	0
308.692	0.258731	0	-0.057009	0	0.0107772	0
308.732	0.259799	0	-0.0561136	0	0.0107572	0
308.772	0.260794	0	-0.0552142	0	0.0107362	0
308.812	0.261716	0	-0.0543107	0	0.0107142	0
308.852	0.262566	0	-0.0534031	0	0.0106912	0
308.892	0.263344	0	-0.0524915	0	0.0106673	0
308.932	0.26405	0	-0.0515759	0	0.0106424	0
308.972	0.264684	0	-0.0506562	0	0.0106166	0
309.012	0.265246	0	-0.0497327	0	0.0105899	0
309.052	0.265737	0	-0.0488051	0	0.0105622	0
309.092	0.266157	0	-0.0478737	0	0.0105336	0
309.132	0.266505	0	-0.0469384	0	0.010504	0
309.172	0.266783	0	-0.0459993	0	0.0104735	0
309.212	0.26699	0	-0.0450563	0	0.0104421	0
309.252	0.267127	0	-0.0441095	0	0.0104097	0
309.292	0.267193	0	-0.0431589	0	0.0103765	0
309.332	0.267189	0	-0.0422046	0	0.0103423	0
309.372	0.267116	0	-0.0412466	0	0.0103072	0
309.412	0.266972	0	-0.0402849	0	0.0102712	0
309.452	0.26676	0	-0.0393195	0	0.0102343	0
309.492	0.266477	0	-0.0383505	0	0.0101965	0
309.532	0.266126	0	-0.0373779	0	0.0101578	0
309.572	0.265705	0	-0.0364017	0	0.0101182	0
309.612	0.265216	0	-0.035422	0	0.0100778	0
309.652	0.264658	0	-0.0344388	0	0.0100364	0
309.692	0.264031	0	-0.0334521	0	0.00999417	0
309.732	0.263336	0	-0.0324619	0	0.00995105	0
309.772	0.262573	0	-0.0314684	0	0.00990705	0
309.812	0.261742	0	-0.0304714	0	0.00986218	0
309.852	0.260842	0	-0.0294711	0	0.00981645	0
309.892	0.259875	0	-0.0284675	0	0.00976984	0
309.932	0.258839	0	-0.0274606	0	0.00972238	0
309.972	0.257736	0	-0.0264505	0	0.00967405	0
310.012	0.256565	0	-0.0254371	0	0.00962487	0
310.052	0.255327	0	-0.0244206	0	0.00957483	0
310.093	0.254022	0	-0.023401	0	0.00952394	0
310.133	0.252649	0	-0.0223782	0	0.00947221	0
310.173	0.251209	0	-0.0213524	0	0.00941963	0
310.213	0.249702	0	-0.0203235	0	0.0093662	0
310.253	0.248127	0	-0.0192917	0	0.00931194	0
310.293	0.246486	0	-0.0182569	0	0.00925684	0
310.333	0.244777	0	-0.0172192	0	0.00920091	0
310.373	0.243002	0	-0.0161787	0	0.00914414	0
310.413	0.24116	0	-0.0151353	0	0.00908654	0
310.453	0.239251	0	-0.0140892	0	0.00902812	0
310.493	0.237276	0	-0.0130403	0	0.00896888	0
310.533	0.235234	0	-0.0119887	0	0.00890882	0
310.573	0.233126	0	-0.0109345	0	0.00884794	0
310.613	0.230951	0	-0.00987763	0	0.00878625	0
310.653	0.22871	0	-0.00881824	0	0.00872374	0
310.693	0.226403	0	-0.00775633	0	0.00866043	0
310.733	0.224031	0	-0.00669197	0	0.00859632	0
310.773	0.221592	0	-0.00562518	0	0.0085314	0
310.813	0.219087	0	-0.00455603	0	0.00846569	0
310.853	0.216518	0	-0.00348456	0	0.00839919	0
310.893	0.213883	0	-0.00241083	0	0.0083319	0
310.933	0.211182	0	-0.00133488	0	0.00826382	0
310.973	0.208417	0	-0.00025676	0	0.00819496	0
311.013	0.205587	0	0.000823472	0	0.00812533	0
311.053	0.202693	0	0.00190576	0	0.00805492	0
311.093	0.199734	0	0.00299006	0	0.00798374	0
311.133	0.196711	0	0.00407632	0	0.00791181	0
311.173	0.193625	0	0.00516448	0	0.00783911	0
311.213	0.190475	0	0.00625448	0	0.00776566	0
311.253	0.187262	0	0.00734627	0	0.00769146	0
311.293	0.183986	0	0.0084398	0	0.00761653	0
311.333	0.180648	0	0.00953501	0	0.00754086	0
311.373	0.177249	0	0.0106318	0	0.00746445	0
311.413	0.173787	0	0.0117302	0	0.00738733	0
311.453	0.170264	0	0.0128301	0	0.00730948	0
311.493	0.16668	0	0.0139315	0	0.00723093	0
311.533	0.163036	0	0.0150342	0	0.00715167	0
311.573	0.159332	0	0.0161383	0	0.00707171	0
311.613	0.155569	0	0.0172437	0	0.00699107	0
311.653	0.151747	0	0.0183502	0	0.00690974	0
311.693	0.147866	0	0.019458	0	0.00682774	0
311.733	0.143928	0	0.0205668	0	0.00674508	0
311.773	0.139934	0	0.0216767	0	0.00666176	0
311.813	0.135882	0	0.0227876	0	0.00657778	0
311.853	0.131774	0	0.0238993	0	0.00649316	0
311.893	0.127611	0	0.025012	0	0.00640791	0
311.933	0.123393	0	0.0261254	0	0.00632204	0
311.973	0.119121	0	0.0272396	0	0.00623555	0
312.013	0.114796	0	0.0283545	0	0.00614845	0
312.053	0.110418	0	0.02947	0	0.00606076	0
312.093	0.105989	0	0.030586	0	0.00597248	0
312.133	0.101508	0	0.0317026	0	0.00588363	0
312.173	0.0969772	0	0.0328196	0	0.0057942	0
312.213	0.0923959	0	0.033937	0	0.00570422	0
312.253	0.087766	0	0.0350547	0	0.00561369	0
312.293	0.0830876	0	0.0361727	0	0.00552262	0
312.333	0.0783617	0	0.0372909	0	0.00543102	0
312.373	0.0735886	0	0.0384092	0	0.0053389	0
312.413	0.0687703	0	0.0395277	0	0.00524627	0
312.453	0.0639065	0	0.0406461	0	0.00515315	0
312.493	0.0589984	0	0.0417645	0	0.00505953	0
312.533	0.0540467	0	0.0428829	0	0.00496544	0
312.573	0.0490525	0	0.0440011	0	0.00487088	0
312.613	0.0440153	0	0.0451191	0	0.00477586	0
312.653	0.038937	0	0.0462368	0	0.00468039	0
312.693	0.0338177	0	0.0473542	0	0.00458448	0
312.733	0.0286584	0	0.0484712	0	0.00448814	0
312.773	0.0234593	0	0.0495878	0	0.00439138	0
312.813	0.0182225	0	0.0507039	0	0.00429421	0
312.853	0.0129476	0	0.0518194	0	0.00419664	0
312.893	0.00763553	0	0.0529343	0	0.00409867	0
312.933	0.00228706	0	0.0540486	0	0.00400032	0
312.973	-0.00309677	0	0.0551621	0	0.0039016	0
313.013	-0.0085169	0	0.0562749	0	0.00380251	0
313.053	-0.0139713	0	0.0573868	0	0.00370306	0
313.093	-0.01946	0	0.0584978	0	0.00360326	0
313.133	-0.0249823	0	0.0596079	0	0.00350312	0
313.173	-0.0305382	0	0.0607169	0	0.00340264	0
313.213	-0.0361253	0	0.0618249	0	0.00330184	0
313.253	-0.0417447	0	0.0629318	0	0.00320071	0
313.293	-0.0473953	0	0.0640375	0	0.00309928	0
313.333	-0.0530766	0	0.065142	0	0.00299754	0
313.373	-0.0587876	0	0.0662452	0	0.00289551	0
313.413	-0.0645297	0	0.067347	0	0.00279319	0
313.454	-0.0703007	0	0.0684474	0	0.00269058	0
313.494	-0.076101	0	0.0695464	0	0.00258769	0
313.534	-0.08193	0	0.0706438	0	0.00248453	0
313.574	-0.0877879	0	0.0717397	0	0.0023811	0
313.614	-0.0936721	0	0.072834	0	0.00227743	0
313.654	-0.0995841	0	0.0739266	0	0.00217349	0
313.694	-0.105523	0	0.0750174	0	0.00206932	0
313.734	-0.111488	0	0.0761064	0	0.0019649	0
313.774	-0.117478	0	0.0771936	0	0.00186026	0
313.814	-0.123495	0	0.0782789	0	0.00175538	0
313.854	-0.129537	0	0.0793622	0	0.00165029	0
313.894	-0.135604	0	0.0804434	0	0.00154498	0
313.934	-0.141695	0	0.0815226	0	0.00143946	0
313.974	-0.14781	0	0.0825997	0	0.00133374	0
314.014	-0.153948	0	0.0836746	0	0.00122784	0
314.054	-0.160109	0	0.0847472	0	0.00112173	0
314.094	-0.166293	0	0.0858175	0	0.00101545	0
314.134	-0.1725	0	0.0868854	0	0.000908996	0
314.174	-0.178727	0	0.087951	0	0.000802372	0
314.214	-0.184977	0	0.089014	0	0.000695586	0
314.254	-0.191245	0	0.0900745	0	0.000588654	0
314.294	-0.197534	0	0.0911324	0	0.000481576	0
314.334	-0.203842	0	0.0921877	0	0.000374363	0
314.374	-0.210169	0	0.0932403	0	0.000267022	0
314.414	-0.216513	0	0.0942901	0	0.000159566	0
314.454	-0.222875	0	0.0953371	0	5.19929e-05	0
314.494	-0.229254	0	0.0963812	0	-5.56797e-05	0
314.534	-0.235648	0	0.0974224	0	-0.000163446	0
314.574	-0.242058	0	0.0984606	0	-0.000271296	0
314.614	-0.248484	0	0.0994957	0	-0.000379224	0
314.654	-0.254921	0	0.100528	0	-0.000487208	0
314.694	-0.261372	0	0.101557	0	-0.000595248	0
314.734	-0.267835	0	0.102582	0	-0.000703329	0
314.774	-0.274309	0	0.103605	0	-0.000811442	0
314.814	-0.280792	0	0.104624	0	-0.000919573	0
314.854	-0.287286	0	0.10564	0	-0.00102772	0
314.894	-0.293788	0	0.106652	0	-0.00113587	0
314.934	-0.300298	0	0.107661	0	-0.001244	0
314.974	-0.306815	0	0.108666	0	-0.00135211	0
315.014	-0.313338	0	0.109668	0	-0.0014602	0
315.054	-0.319864	0	0.110666	0	-0.00156822	0
315.094	-0.326395	0	0.11166	0	-0.00167619	0
315.134	-0.332928	0	0.112651	0	-0.00178409	0
315.174	-0.339463	0	0.113638	0	-0.00189191	0
315.214	-0.345997	0	0.114621	0	-0.00199962	0
315.254	-0.352533	0	0.1156	0	-0.00210724	0
315.294	-0.359067	0	0.116575	0	-0.00221473	0
315.334	-0.365599	0	0.117547	0	-0.0023221	0
315.374	-0.372127	0	0.118514	0	-0.00242932	0
315.414	-0.378651	0	0.119477	0	-0.00253639	0
315.454	-0.385169	0	0.120436	0	-0.00264329	0
315.494	-0.391682	0	0.121391	0	-0.00275001	0
315.534	-0.398188	0	0.122341	0	-0.00285655	0
315.574	-0.404685	0	0.123288	0	-0.00296288	0
315.614	-0.411174	0	0.12423	0	-0.003069	0
315.654	-0.417653	0	0.125167	0	-0.0031749	0
315.694	-0.42412	0	0.126101	0	-0.00328056	0
315.734	-0.430575	0	0.12703	0	-0.00338598	0
315.774	-0.437018	0	0.127954	0	-0.00349114	0
315.814	-0.443447	0	0.128874	0	-0.00359604	0
315.854	-0.449862	0	0.129789	0	-0.00370066	0
315.894	-0.456262	0	0.1307	0	-0.003805	0
315.934	-0.462646	0	0.131606	0	-0.00390904	0
315.974	-0.469014	0	0.132507	0	-0.00401278	0
316.014	-0.475364	0	0.133404	0	-0.00411621	0
316.054	-0.481698	0	0.134295	0	-0.00421932	0
316.094	-0.488011	0	0.135183	0	-0.0043221	0
316.134	-0.494306	0	0.136065	0	-0.00442454	0
316.174	-0.50058	0	0.136942	0	-0.00452663	0
316.214	-0.506834	0	0.137814	0	-0.00462838	0
316.254	-0.513065	0	0.138682	0	-0.00472975	0
316.294	-0.519277	0	0.139544	0	-0.00483077	0
316.334	-0.525466	0	0.140402	0	-0.00493142	0
316.374	-0.531633	0	0.141254	0	-0.00503168	0
316.414	-0.537776	0	0.142101	0	-0.00513156	0
316.454	-0.543895	0	0.142943	0	-0.00523105	0
316.494	-0.54999	0	0.14378	0	-0.00533013	0
316.534	-0.556061	0	0.144612	0	-0.00542881	0
316.574	-0.562107	0	0.145438	0	-0.00552709	0
316.614	-0.568128	0	0.146259	0	-0.00562494	0
316.654	-0.574123	0	0.147075	0	-0.00572238	0
316.694	-0.580092	0	0.147886	0	-0.00581939	0
316.734	-0.586034	0	0.148691	0	-0.00591597	0
316.774	-0.591949	0	0.14949	0	-0.00601211	0
316.815	-0.597836	0	0.150284	0	-0.00610781	0
316.855	-0.603696	0	0.151073	0	-0.00620305	0
316.895	-0.609526	0	0.151856	0	-0.00629784	0
316.935	-0.615329	0	0.152634	0	-0.00639218	0
316.975	-0.621102	0	0.153406	0	-0.00648605	0
317.015	-0.626846	0	0.154172	0	-0.00657945	0
317.055	-0.63256	0	0.154933	0	-0.00667238	0
317.095	-0.638245	0	0.155688	0	-0.00676483	0
317.135	-0.643897	0	0.156437	0	-0.00685678	0
317.175	-0.649518	0	0.157181	0	-0.00694824	0
317.215	-0.655106	0	0.157919	0	-0.0070392	0
317.255	-0.660663	0	0.158651	0	-0.00712965	0
317.295	-0.666185	0	0.159377	0	-0.00721959	0
317.335	-0.671676	0	0.160097	0	-0.00730901	0
317.375	-0.677131	0	0.160811	0	-0.00739791	0
317.415	-0.682553	0	0.161519	0	-0.00748627	0
317.455	-0.687938	0	0.162222	0	-0.00757409	0
317.495	-0.693288	0	0.162918	0	-0.00766136	0
317.535	-0.698601	0	0.163608	0	-0.00774808	0
317.575	-0.703877	0	0.164293	0	-0.00783423	0
317.615	-0.709115	0	0.164971	0	-0.00791981	0
317.655	-0.714314	0	0.165643	0	-0.00800482	0
317.695	-0.719474	0	0.166309	0	-0.00808923	0
317.735	-0.724595	0	0.166968	0	-0.00817305	0
317.775	-0.729674	0	0.167622	0	-0.00825627	0
317.815	-0.734712	0	0.168269	0	-0.00833887	0
317.855	-0.739707	0	0.16891	0	-0.00842084	0
