# SeaFEM body drift results file v.1.0
DataSets	Body data Auto1
SubSets	Drift
numResults	6
time[s]	Fx_correction[N]	Fy_correction[N]	Fz_correction[N]	Mx_correction[N]	My_correction[N]	Mz_correction[N]
300.009	82.308	103.528	219.393	278.801	29489.2	3.38519
300.05	100.125	200.083	249.972	486.089	30550.1	2.7907
300.09	115.091	295.571	253.089	770.904	30509.8	1.67868
300.13	124.153	384.369	281.893	963.767	31579	1.22453
300.17	131.598	473.226	260.958	1310.08	30503.6	-0.285541
300.21	130.732	550.575	301.994	1436.15	32192.2	-0.27222
300.25	127.988	626.892	295.419	1710.57	31755.6	-1.29057
300.29	118.91	694.317	314.331	1880.63	32521	-1.60875
300.33	106.74	757.871	307.346	2128.07	32068.5	-2.47856
300.37	86.6685	809.349	347.112	2183.35	33942.8	-2.07679
300.41	66.0111	860.346	326.201	2449.77	32803.5	-3.14041
300.45	37.6658	898.883	349.596	2524.69	33963.5	-2.95959
300.49	6.72282	932.795	347.567	2680.46	33807.7	-3.37225
300.53	-30.2545	956.175	368.674	2717.56	34973.3	-3.0504
300.57	-67.5925	977.5	344.935	2928.07	33579.4	-3.94058
300.61	-113.092	983.968	376.289	2871.27	35479.6	-3.12819
300.65	-158.385	988.377	365.285	2984.93	34843.5	-3.50935
300.69	-208.577	982.215	376.397	2971.37	35637.9	-3.12911
300.73	-259.181	971.948	364.929	3047.89	34971.2	-3.41024
300.77	-315.779	948.631	392.85	2896.12	37088.5	-2.28987
300.81	-368.97	926.384	369.346	2996.24	35584.5	-2.87501
300.85	-427.193	891.847	382.461	2871.88	36835.1	-2.09644
300.89	-483.929	854.749	374.288	2847.96	36498.5	-2.04152
300.93	-543.238	808.799	384.171	2689.16	37738.8	-1.20947
300.97	-598.036	764.412	358.558	2742.81	35907.5	-1.80041
301.01	-657.93	707.284	375.039	2488.45	38007.3	-0.52932
301.05	-712.615	652.789	358.872	2445.48	37069	-0.661285
301.09	-768.572	591.562	358.618	2262.84	37828.4	0.00292159
301.13	-820.461	531.543	341.864	2198.23	36835.4	-0.135431
301.17	-875.451	462.799	351.477	1876.87	39156.8	1.23791
301.21	-922.213	402.012	326.13	1866.12	37150.4	0.63971
301.25	-971.588	334.033	323.997	1604.9	38418.3	1.50906
301.29	-1015.88	270.304	308.004	1476.55	37790.2	1.51286
301.33	-1060.54	203.711	301.662	1204.82	39027	2.32684
301.37	-1097.26	146.267	275.684	1197.47	36610.5	1.50711
301.41	-1138.21	81.4934	270.52	844.514	38856	2.70687
301.45	-1171.17	26.8865	248.927	754.686	37486.7	2.30387
301.49	-1204.38	-28.5534	233.51	516.586	38132.7	2.74409
301.53	-1231.67	-76.0574	211.558	431.865	36686.5	2.2582
301.57	-1262.02	-127.484	195.958	60.739	39182.2	3.41882
301.61	-1281.79	-164.203	171.308	68.1685	36529	2.37027
301.65	-1304.42	-204.22	149.607	-204.706	37766.8	2.92995
301.69	-1320.61	-235.073	125.75	-308.74	36749.2	2.52014
301.73	-1335.5	-263.671	100.434	-496.188	36952	2.59082
301.77	-1345.2	-285.033	75.5978	-583.508	35858.1	2.10802
301.81	-1355.24	-306.605	44.8217	-838.927	37173.5	2.58673
301.85	-1357.03	-317.511	20.3299	-857.36	35314.1	1.76785
301.89	-1358.91	-328.915	-12.0703	-1040.42	35835.7	1.89594
301.93	-1354.97	-333.666	-40.7958	-1114.79	34964.9	1.46392
301.97	-1349.36	-337.441	-76.8476	-1278.69	35448.3	1.56653
302.01	-1335.76	-332.721	-100.036	-1241.25	33254.9	0.6292
302.05	-1323.42	-331.654	-143.424	-1440	34460.9	1.02461
302.09	-1303	-322.912	-171.776	-1440.29	33021.2	0.417992
302.13	-1280.8	-314.786	-211.094	-1537.29	33049.6	0.395989
302.17	-1252.16	-301.903	-239.468	-1516.83	31551.8	-0.172949
302.21	-1223.92	-292.996	-293.371	-1692.88	32923.3	0.364903
302.25	-1185.91	-275.832	-314.77	-1593.96	30544.4	-0.451089
302.29	-1148.42	-263.195	-363.816	-1689.08	31001	-0.178506
302.33	-1104.61	-246.942	-397.284	-1660.42	29818.8	-0.458584
302.37	-1059.77	-233.466	-449.797	-1739.97	30257	-0.103958
302.41	-1006.64	-214.072	-465.595	-1588.83	27536.3	-0.828487
302.45	-956.758	-202.411	-531.91	-1718.28	28857.7	-0.0627567
302.49	-899.185	-185.371	-559.195	-1621.64	27061.3	-0.343451
302.53	-841.954	-172.136	-610.816	-1643.67	27019.5	0.0406
302.57	-779.821	-156.328	-637.038	-1534.88	25183.7	-0.141922
302.61	-721.39	-147.606	-716.218	-1662.27	26765.6	0.888242
302.65	-654.73	-131.774	-726.589	-1475.34	23916.4	0.464121
302.69	-592.625	-123.101	-792.213	-1522.13	24441.4	1.21299
302.73	-527.068	-112.059	-825.982	-1431.56	23040.9	1.35561
302.77	-464.692	-105.656	-895.105	-1474.25	23571.8	2.15881
302.81	-397.008	-93.816	-895.202	-1256.06	20380.9	1.77778
302.85	-337.951	-91.7466	-987.362	-1370.8	21988.2	2.94944
302.89	-274.52	-84.4212	-1008.03	-1230.08	19915.8	2.95522
302.93	-216.382	-82.0239	-1071.43	-1234.19	19932.2	3.61242
302.97	-158.701	-78.8039	-1110.77	-1158.01	18779.5	3.89014
303.01	-105.643	-78.8345	-1176.67	-1164.44	18811.8	4.50402
303.05	-52.1158	-76.0774	-1191.33	-1016.35	16580.5	4.39745
303.09	-6.66763	-79.4259	-1274.06	-1071.15	17267.7	5.11983
303.13	38.6151	-79.8949	-1304.17	-974.463	15724.4	5.12086
303.17	77.8198	-83.3898	-1365.61	-967.418	15452.1	5.42743
303.21	114.857	-85.4065	-1394.29	-874.756	13897.3	5.2836
303.25	143.459	-92.1774	-1488.86	-954.571	14821.6	5.76125
303.29	172.681	-93.9266	-1497.66	-818.818	12545.9	5.23402
303.33	193.208	-99.9792	-1573.72	-853.082	12723.2	5.2888
303.37	211.279	-103.687	-1610.99	-795.816	11510.2	4.84524
303.411	222.315	-109.481	-1689.29	-836.713	11700.4	4.66156
303.451	232.857	-110.402	-1687.84	-699.295	9213.21	3.63822
303.491	233.142	-116.312	-1790.97	-798.501	10180.5	3.3994
303.531	233.074	-116.996	-1813.03	-722.319	8509.9	2.33826
303.571	226.017	-118.997	-1882.51	-749.957	8342.45	1.53277
303.611	217.087	-117.226	-1902.27	-678.656	6650.6	0.21184
303.651	199.175	-118.631	-2020.46	-805.386	7893.54	-0.506338
303.691	183.512	-112.327	-2010.44	-682.19	5354.14	-2.28281
303.731	159.32	-108.804	-2100.09	-753.746	5705.36	-3.47012
303.771	134.395	-100.769	-2132.26	-718.163	4415.43	-5.16006
303.811	103.585	-93.3217	-2224.28	-793.458	4769.91	-6.562
303.851	74.9571	-78.9456	-2200.03	-661.632	1983.01	-8.77354
303.891	37.1496	-68.8452	-2327.58	-799.498	3243.91	-10.1309
303.931	2.18303	-51.9757	-2337.62	-733.629	1403.22	-12.2397
303.971	-37.6656	-35.9217	-2415.97	-784.557	1326.97	-13.9929
304.011	-76.1464	-15.3834	-2423.11	-719.108	-539.858	-16.1463
304.051	-121.548	1.56002	-2570.37	-879.049	1027.86	-17.5612
304.091	-160.477	26.5948	-2535.37	-749.359	-1838.66	-19.8781
304.131	-205.628	47.7173	-2641.68	-841.177	-1321.32	-21.4361
304.171	-247.731	72.6267	-2666.66	-807.527	-2727.5	-23.305
304.211	-291.519	96.5694	-2738.09	-843.671	-3062.66	-24.8517
304.251	-333.023	122.443	-2761.1	-808.597	-4493.63	-26.4769
304.291	-377.279	145.241	-2879.28	-909.159	-3823.1	-27.5394
304.331	-415.873	171.655	-2873.8	-834.056	-5873.24	-28.9259
304.371	-456.643	194.39	-2964.13	-892.031	-5846.87	-29.7132
304.411	-493.747	217.806	-2999.46	-873.788	-7001.78	-30.4747
304.451	-530.938	238.182	-3091.72	-930.788	-6976.27	-30.765
304.491	-562.252	260.098	-3073.63	-841.845	-9211.9	-31.1565
304.531	-596.072	275.901	-3199.13	-939.148	-8537.8	-30.748
304.571	-623.58	292.559	-3213.8	-893.113	-10091.1	-30.3839
304.611	-650.532	304.9	-3292.38	-926.859	-10378.6	-29.4724
304.651	-672.409	316.212	-3304.9	-878.943	-11944	-28.4059
304.691	-695.378	321.152	-3446.19	-985.365	-11061.4	-26.5987
304.731	-709.77	327.229	-3420.1	-891.134	-13332.5	-24.8971
304.771	-724.981	326.692	-3523.15	-948.788	-13193.4	-22.4632
304.811	-734.391	324.582	-3551.8	-919.082	-14417.5	-19.8537
304.851	-742.599	317.13	-3656.93	-975.524	-14264.2	-16.6851
304.891	-742.72	309.687	-3613.12	-865.292	-16748.1	-13.5106
304.931	-744.943	294.237	-3762.4	-968.077	-15826.5	-9.5412
304.971	-738.925	278.801	-3762.41	-907.13	-17500	-5.57788
305.011	-731.669	258.116	-3847.94	-938.019	-17695.6	-1.12136
305.051	-718.021	236.209	-3844.84	-875.399	-19369.2	3.43916
305.091	-705.35	207.662	-4013.32	-990.283	-18193.8	8.58531
305.131	-682.418	181.119	-3958.46	-875.931	-20684.3	13.5322
305.171	-660.541	148.548	-4075.2	-935.398	-20356.6	18.9744
305.211	-631.927	115.868	-4092.86	-896.069	-21620.4	24.3899
305.251	-601.079	80.2828	-4165.95	-911.469	-21986.6	29.9986
305.291	-564.931	44.4136	-4180.74	-870.772	-23244	35.5746
305.331	-528.139	5.38595	-4307.53	-936.775	-22766.1	41.3232
305.371	-483.9	-31.4889	-4287.9	-865.3	-24510.8	46.8258
305.411	-439.366	-70.6239	-4380.16	-898.54	-24540.8	52.3901
305.451	-389.954	-108.315	-4407.51	-872.557	-25525.6	57.7306
305.491	-339.321	-146.464	-4499.96	-905.908	-25537.1	62.9546
305.531	-282.899	-181.267	-4464.95	-826.537	-27378.8	67.7988
305.571	-228.335	-217.335	-4593.72	-892.597	-26838.6	72.5199
305.611	-168.621	-249.28	-4595.29	-848.285	-28098.1	76.7738
305.651	-109.235	-280.073	-4668.74	-866.946	-28318.9	80.7062
305.691	-46.924	-306.936	-4666.79	-822.881	-29561.4	84.1422
305.731	12.5451	-333.037	-4809.32	-900.438	-28807	87.2177
305.771	76.7964	-352.837	-4762.84	-822.804	-30602.2	89.638
305.811	137.125	-371.256	-4860.36	-864.139	-30422.2	91.6117
305.851	198.733	-384.585	-4874.21	-839.376	-31345.1	92.9539
305.891	257.003	-395.143	-4971.6	-881.945	-31139.8	93.7357
305.931	317.154	-399.209	-4905.58	-797.671	-33033.4	93.8151
305.971	370.159	-402.069	-5049.06	-878.348	-32200.9	93.3445
306.011	424.118	-398.377	-5029.85	-834.642	-33425.4	92.1555
306.051	472.668	-391.722	-5102.4	-862.544	-33461.9	90.3409
306.091	518.805	-380.161	-5121.82	-851.932	-34139.9	87.852
306.131	559.743	-365.213	-5193.54	-881.404	-34143.3	84.7217
306.171	598.603	-344.998	-5162.27	-837.253	-35382.7	80.9365
306.211	629.995	-322.735	-5261.98	-889.861	-35003.7	76.5433
306.251	658.893	-295.672	-5259.23	-870.401	-35838.1	71.5415
306.291	681.529	-266.097	-5313.65	-893.008	-35958.4	65.9705
306.331	700.529	-232.88	-5306.98	-874.969	-36777	59.8621
306.371	711.933	-198.478	-5416.47	-938.361	-36217.4	53.2518
306.411	721.749	-160.115	-5373.03	-898.915	-37402.3	46.1931
306.451	724.087	-121.334	-5445.26	-939.662	-37236	38.7174
306.491	723.148	-80.4652	-5449.84	-936.409	-37809.3	30.8943
306.531	716.314	-39.4819	-5520.7	-978.932	-37624.6	22.7563
306.571	707.789	3.29327	-5461.49	-937.836	-38853.1	14.4136
306.611	691.772	44.1539	-5567.93	-1006.2	-38235.8	5.83847
306.651	674.696	85.7675	-5545.34	-992.893	-39005.6	-2.81097
306.691	652.639	125.499	-5594.87	-1027.3	-38973.6	-11.5392
306.731	629.013	164.385	-5568.13	-1015.41	-39729.6	-20.2241
306.772	599.649	199.718	-5686.72	-1095.3	-38936.8	-28.8905
306.812	571.816	234.361	-5614.68	-1059.14	-40118.8	-37.328
306.852	538.809	264.595	-5687.17	-1112.64	-39771	-45.6236
306.892	505.884	292.224	-5675.58	-1116.87	-40277.7	-53.6011
306.932	470.513	315.656	-5709.64	-1149.46	-40290.9	-61.2685
306.972	435.004	335.458	-5694.27	-1153.94	-40779.2	-68.5112
307.012	396.851	350.075	-5772.22	-1214.26	-40327.8	-75.3578
307.052	360.611	361.243	-5726.96	-1203.48	-41066.9	-81.6232
307.092	322.211	366.907	-5774.45	-1247.04	-40878.7	-87.3952
307.132	284.908	368.281	-5767.57	-1259.93	-41200	-92.5306
307.172	246.773	364.439	-5813.55	-1302.77	-40992.6	-97.0694
307.212	211.084	356.752	-5755.57	-1287.63	-41756.9	-100.848
307.252	173.454	343.394	-5829.58	-1345.48	-41250.5	-104.037
307.292	138.697	326.481	-5800.71	-1345.99	-41690.7	-106.411
307.332	103.813	304.97	-5829.08	-1376.9	-41576.3	-108.092
307.372	71.3469	280.091	-5797.06	-1374.34	-41998.4	-108.963
307.412	38.0763	250.867	-5879.31	-1431.35	-41365.6	-109.177
307.452	9.28452	219.697	-5811.71	-1406.88	-42057.8	-108.49
307.492	-19.9728	185.04	-5857.38	-1440.36	-41720.1	-107.156
307.532	-46.0022	148.691	-5837.11	-1437.03	-41946.5	-105.015
307.572	-70.6831	110.391	-5852.43	-1449.54	-41837.8	-102.185
307.612	-92.3899	71.1564	-5829.32	-1439.64	-42042.6	-98.613
307.652	-113.115	30.724	-5878.01	-1463.08	-41611	-94.445
307.692	-129.486	-9.27877	-5831.81	-1435.33	-41966.7	-89.5368
307.732	-144.643	-49.4982	-5856.75	-1439.83	-41698.7	-84.1071
307.772	-156.228	-88.7171	-5839.83	-1419.94	-41762.3	-78.0732
307.812	-165.76	-127.041	-5863.42	-1416.28	-41469.8	-71.5785
307.852	-170.936	-163.287	-5806.74	-1369.51	-41811.2	-64.5254
307.892	-175.076	-198.241	-5851.63	-1368.48	-41308.1	-57.1944
307.932	-174.786	-230.417	-5817.13	-1325.07	-41421.8	-49.4145
307.972	-172.395	-260.285	-5826.49	-1299.06	-41166.1	-41.4002
308.012	-166.267	-287.032	-5789.37	-1247.17	-41252.7	-33.0964
308.052	-158.915	-311.215	-5839.39	-1233	-40644.9	-24.736
308.092	-146.734	-331.469	-5774.81	-1161.28	-40894.9	-16.1209
308.132	-133.598	-348.805	-5796.38	-1126.77	-40466.9	-7.57461
308.172	-117.099	-362.318	-5767.52	-1065.75	-40398.5	1.02148
308.212	-98.9007	-372.363	-5765.46	-1014.39	-40108.3	9.50221
308.252	-78.1567	-378.579	-5734.03	-947.233	-40015.8	17.885
308.292	-56.7151	-381.385	-5756.6	-902.327	-39504.4	25.9964
308.332	-32.4192	-380.132	-5707.24	-823.231	-39497.5	33.9553
308.372	-7.99783	-375.51	-5711.24	-766.638	-39082.3	41.5332
308.412	17.9147	-367.145	-5683.41	-694.804	-38874.5	48.8009
308.452	43.8212	-355.445	-5685.57	-635.603	-38433.9	55.6203
308.492	71.123	-340.083	-5627.62	-549.924	-38398.9	62.0871
308.532	96.8288	-321.876	-5644.86	-497.007	-37809.6	67.9503
308.572	123.334	-300.341	-5602.77	-419.082	-37616.6	73.3863
308.612	148.497	-276.125	-5592.84	-356.118	-37182.3	78.2209
308.652	173.036	-249.21	-5563.31	-286.104	-36859.1	82.5092
308.692	195.982	-220.027	-5551.38	-225.54	-36399.2	86.1708
308.732	218.098	-188.605	-5503.09	-151.795	-36161	89.2793
308.772	237.616	-155.624	-5499.19	-99.5493	-35610.5	91.6871
308.812	255.919	-121.04	-5459.46	-35.3226	-35277.2	93.5236
308.852	271.736	-85.4456	-5438.45	17.6482	-34803.3	94.6955
308.892	285.726	-49.0241	-5395.98	75.8574	-34445.6	95.2723
308.932	296.663	-12.4015	-5392.28	113.745	-33833.1	95.1669
308.972	306.208	24.423	-5336.01	169.228	-33523	94.5358
309.012	312.588	60.6897	-5318.06	204.151	-32965.5	93.2526
309.052	317.025	96.2733	-5276.76	243.842	-32534.2	91.438
309.092	318.827	130.66	-5246.88	273.914	-32018	89.0604
309.132	318.586	163.591	-5202.92	304.562	-31570.8	86.1908
309.172	315.6	194.579	-5183.77	319.99	-30965.9	82.8
309.212	311.192	223.528	-5130.21	344.04	-30545.6	79.017
309.252	304.302	249.927	-5101.22	352.826	-29976.1	74.7867
309.292	295.868	273.672	-5056.89	362.632	-29480	70.2142
309.332	285.495	294.43	-5025.68	361.994	-28901.3	65.2933
309.372	274.121	312.181	-4967.58	367.253	-28459	60.1416
309.412	260.772	326.542	-4941.97	354.576	-27831.9	54.6934
309.452	246.818	337.649	-4890.1	347.761	-27339.3	49.1046
309.492	231.624	345.286	-4851.96	331.034	-26768	43.3476
309.532	215.926	349.551	-4797.9	316.693	-26268.2	37.521
309.572	199.042	350.301	-4773.15	286.905	-25617.1	31.5945
309.612	182.524	347.843	-4708.89	269.343	-25156.4	25.7279
309.652	165.156	342.029	-4673.6	237.12	-24552.6	19.8504
309.692	148.007	333.154	-4621	209.138	-24026.4	14.0825
309.732	130.531	321.255	-4584.11	172.727	-23419.3	8.40573
309.772	113.896	306.688	-4516.33	146.472	-22961.1	2.94655
309.812	96.6988	289.393	-4486.85	103.67	-22317.9	-2.39193
309.852	80.5403	269.85	-4427.28	71.6623	-21812.6	-7.44647
309.892	64.5021	248.118	-4384.04	32.5892	-21230.3	-12.2743
309.932	49.4505	224.564	-4322.97	0.128152	-20728	-16.7859
309.972	34.3464	199.26	-4295.56	-45.4224	-20081.2	-21.0479
310.012	20.9082	172.733	-4223.68	-72.9359	-19617.9	-24.9049
310.052	7.55783	144.97	-4185.04	-112.744	-19018.6	-28.4746
310.093	-4.50212	116.415	-4127.04	-143.809	-18499.4	-31.651
310.133	-16.0937	87.1887	-4087.32	-180.529	-17904.9	-34.493
310.173	-25.9546	57.7451	-4012.36	-201.584	-17452.7	-36.8929
310.213	-35.915	28.0392	-3981.83	-238.077	-16824.3	-38.9997
310.253	-44.118	-1.38652	-3916.89	-258.693	-16329.6	-40.6639
310.293	-51.8236	-30.4868	-3870.98	-284.295	-15764.2	-41.9897
310.333	-58.1521	-58.8801	-3805.14	-299.271	-15270.2	-42.9129
310.373	-64.4659	-86.5363	-3777.21	-326.285	-14644.1	-43.5452
310.413	-68.7608	-112.919	-3699.81	-330.738	-14188.7	-43.7459
310.453	-73.1752	-138.114	-3659.73	-346.721	-13607	-43.6827
310.493	-76.3585	-161.696	-3598.24	-350.933	-13096.3	-43.2688
310.533	-79.4335	-183.616	-3557.54	-360.104	-12519.1	-42.5997
310.573	-81.01	-203.449	-3477.05	-349.852	-12067	-41.5847
310.613	-83.5044	-221.36	-3447.21	-356.459	-11456.2	-40.4146
310.653	-84.6787	-236.84	-3378.51	-344.203	-10968.3	-38.9467
310.693	-86.3849	-249.969	-3331.59	-336.98	-10407.5	-37.3189
310.733	-87.4499	-260.456	-3262.38	-317.713	-9917.05	-35.4753
310.773	-89.851	-268.435	-3235.77	-312.2	-9306.92	-33.5574
310.813	-91.0844	-273.457	-3154.11	-281.247	-8840.86	-31.4203
310.853	-93.9011	-275.846	-3114.24	-264.248	-8269.31	-29.2583
310.893	-96.6416	-275.324	-3050.66	-234.694	-7756.44	-26.9825
310.933	-100.788	-272.093	-3010.6	-212.002	-7184.35	-24.7012
310.973	-104.434	-265.925	-2925.76	-168.311	-6717.58	-22.3159
311.013	-110.699	-257.326	-2898.29	-146.056	-6120.79	-20.0317
311.053	-116.626	-245.996	-2827.15	-103.59	-5618.51	-17.6906
311.093	-124.297	-232.381	-2780.67	-69.704	-5068.5	-15.4325
311.133	-132.299	-216.464	-2709.53	-23.6908	-4560.11	-13.1913
311.173	-142.725	-198.779	-2685.61	3.40405	-3974.35	-11.1037
311.213	-152.265	-179.114	-2601.15	57.2607	-3488.22	-9.0057
311.253	-164.159	-158.222	-2562.81	92.0584	-2931.65	-7.08659
311.293	-176.044	-136.084	-2498.63	138.411	-2413.11	-5.23876
311.333	-189.44	-113.258	-2460.34	173.429	-1863.99	-3.55627
311.373	-201.758	-89.7199	-2373.16	229.932	-1374.27	-1.92354
311.413	-216.528	-66.3472	-2348.97	257.813	-821.343	-0.52833
311.453	-229.856	-42.9283	-2277.19	306.238	-317.717	0.804797
311.493	-244.096	-20.1589	-2232.5	341.484	206.446	1.95465
311.533	-257.16	1.92716	-2161.19	387.66	708.508	3.00536
311.573	-271.538	22.6356	-2141.16	408.612	1228.76	3.84045
311.613	-282.938	42.3304	-2055.97	458.321	1721.7	4.63678
311.653	-295.215	60.1633	-2020.7	482.777	2218.2	5.22889
311.693	-305.402	76.3775	-1957.81	518.556	2707.57	5.73559
311.733	-315.358	90.507	-1922.99	538.765	3187.27	6.08336
311.773	-321.859	102.931	-1835.86	582.688	3671.07	6.39414
311.813	-329.451	112.862	-1816.57	591.216	4126.08	6.5074
311.853	-333.319	121.017	-1746.53	622.946	4594.37	6.59673
311.893	-336.62	126.928	-1705.63	638.212	5037.79	6.56286
311.933	-336.969	131.038	-1636.72	666.069	5496.91	6.4904
311.973	-337.764	132.899	-1622.35	663.825	5886.87	6.28679
312.013	-333.897	133.504	-1539.29	696.061	6352.33	6.11162
312.053	-330.628	132.175	-1509.14	699.036	6739.12	5.82988
312.093	-324.48	129.69	-1450.18	716.173	7158.12	5.54734
312.133	-318.249	125.824	-1420.66	716.129	7517.85	5.20771
312.173	-308.236	121.455	-1337.19	745.551	7974.72	4.91041
312.213	-300.516	115.808	-1323.98	734.539	8272.39	4.53404
312.253	-289.466	110.104	-1258.66	752.893	8681.56	4.21154
312.293	-279.379	103.867	-1223.48	753.539	9008.53	3.86975
312.333	-267.576	97.8079	-1159.68	771.188	9409.07	3.56904
312.373	-258.628	91.329	-1151.97	754.538	9620.13	3.24697
312.413	-246.384	85.7643	-1074.06	781.459	10064.8	3.00523
312.453	-237.604	80.0605	-1050.27	774.852	10308	2.75795
312.493	-228.119	75.128	-997.305	787.141	10655	2.56624
312.533	-221.477	70.4343	-974.09	780.217	10870.5	2.397
312.573	-213.112	66.9242	-896.973	810.33	11325.2	2.2961
312.613	-210.55	63.2365	-890.005	792.876	11440.6	2.20593
312.653	-206.681	60.7341	-831.348	811.831	11809.1	2.1791
312.693	-206.668	58.4352	-802.512	810.212	12016	2.1852
312.733	-206.99	56.9842	-745.837	829.544	12382	2.23701
312.773	-213.038	55.2527	-743.646	808.218	12400.5	2.32468
312.813	-216.817	54.7653	-673.651	839.135	12863.3	2.44853
312.853	-226.351	53.8127	-655.864	829.698	12962.1	2.60936
312.893	-236.098	53.4133	-610.236	842.885	13263.9	2.79451
312.933	-249.972	52.6475	-592.872	832.446	13337	3.01395
312.973	-261.881	52.6594	-525.056	866.151	13838.1	3.23067
313.013	-280.668	51.4994	-522.904	841.937	13757.6	3.49711
313.053	-297.102	50.9803	-472.878	861.088	14121.4	3.74274
313.093	-317.061	49.7597	-450.568	854.57	14212.7	4.01398
313.133	-335.772	48.7673	-402.928	873.051	14578.6	4.25756
313.173	-359.555	46.5365	-405.067	841.23	14373.7	4.55438
313.213	-378.051	45.2829	-346.09	872.715	14902.9	4.75769
313.253	-400.953	42.8012	-334.261	854.526	14844.6	5.01233
313.293	-421.058	40.6562	-297.916	863.598	15115	5.20386
313.333	-443.07	37.7598	-286.645	843.531	15023.7	5.41814
313.373	-459.153	35.8672	-231.86	877.733	15615.6	5.50339
313.413	-480.367	32.4646	-233.996	840.823	15292.1	5.69036
313.454	-495.036	30.2118	-195.576	857.445	15664.5	5.73315
