# SeaFEM body kinematics file v.1.0
DataSets	Body data Auto1
SubSets	Movements	Velocities	Accelerations
numResults	18
time[s]	Surge	Sway	Heave	Roll	Pitch	Yaw	Surge_Vel	Sway_Vel	Heave_Vel	Roll_Vel	Pitch_Vel	Yaw_Vel	Surge_Accel	Sway_Accel	Heave_Accel	Roll_Accel	Pitch_Accel	Yaw_Accel
300.009	-1.04679	0	-0.161541	0	-0.00250049	0	0.156964	0	0.0048787	0	0.00232472	0	0.0282909	0	0.00108679	0	0.000176448	0
300.05	-1.04048	0	-0.161345	0	-0.00240733	0	0.158109	0	0.00492221	0	0.0023318	0	0.0289543	0	0.00108863	0	0.000177306	0
300.09	-1.03413	0	-0.161147	0	-0.00231389	0	0.159248	0	0.00496579	0	0.00233872	0	0.0279555	0	0.00108982	0	0.000168492	0
300.13	-1.02774	0	-0.160948	0	-0.00222018	0	0.160379	0	0.00500948	0	0.00234547	0	0.028631	0	0.0010937	0	0.000169419	0
300.17	-1.0213	0	-0.160746	0	-0.0021262	0	0.161474	0	0.00505321	0	0.0023519	0	0.0260785	0	0.00109267	0	0.000151531	0
300.21	-1.01482	0	-0.160543	0	-0.00203198	0	0.16255	0	0.00509702	0	0.00235809	0	0.0277133	0	0.00109846	0	0.000158041	0
300.25	-1.00829	0	-0.160339	0	-0.0019375	0	0.163627	0	0.00514099	0	0.00236417	0	0.0261264	0	0.00109955	0	0.000145784	0
300.29	-1.00172	0	-0.160132	0	-0.00184279	0	0.164677	0	0.00518505	0	0.00236997	0	0.026369	0	0.00110322	0	0.000144177	0
300.33	-0.995114	0	-0.159924	0	-0.00174785	0	0.165701	0	0.00522925	0	0.00237549	0	0.0247733	0	0.00110655	0	0.000131891	0
300.37	-0.988464	0	-0.159714	0	-0.0016527	0	0.166731	0	0.00527364	0	0.00238094	0	0.0267061	0	0.00111051	0	0.000140082	0
300.41	-0.981772	0	-0.159502	0	-0.00155732	0	0.167746	0	0.00531809	0	0.00238617	0	0.0240568	0	0.00111241	0	0.000121682	0
300.45	-0.975041	0	-0.159288	0	-0.00146175	0	0.168726	0	0.0053627	0	0.00239108	0	0.0249255	0	0.00111666	0	0.000123713	0
300.49	-0.96827	0	-0.159073	0	-0.00136598	0	0.169701	0	0.00540747	0	0.00239584	0	0.0237896	0	0.00112177	0	0.000114103	0
300.53	-0.96146	0	-0.158855	0	-0.00127003	0	0.17067	0	0.00545243	0	0.00240045	0	0.0246699	0	0.00112607	0	0.000116214	0
300.57	-0.954613	0	-0.158636	0	-0.00117389	0	0.171597	0	0.00549757	0	0.00240469	0	0.0216635	0	0.00112851	0	9.57234e-05	0
300.61	-0.947729	0	-0.158415	0	-0.0010776	0	0.172505	0	0.00554284	0	0.00240869	0	0.0237003	0	0.00113437	0	0.000104572	0
300.65	-0.940808	0	-0.158193	0	-0.000981142	0	0.173416	0	0.00558833	0	0.0024126	0	0.0218578	0	0.00113865	0	9.08591e-05	0
300.69	-0.933852	0	-0.157968	0	-0.000884537	0	0.174298	0	0.00563395	0	0.00241622	0	0.0222229	0	0.00114188	0	8.99845e-05	0
300.73	-0.926861	0	-0.157742	0	-0.000787791	0	0.17515	0	0.00567973	0	0.00241955	0	0.0203649	0	0.00114644	0	7.61987e-05	0
300.77	-0.919836	0	-0.157514	0	-0.000690916	0	0.176014	0	0.00572569	0	0.00242282	0	0.0227781	0	0.0011513	0	8.72104e-05	0
300.81	-0.912776	0	-0.157284	0	-0.00059391	0	0.176862	0	0.0057718	0	0.00242588	0	0.0196413	0	0.00115388	0	6.59969e-05	0
300.85	-0.905683	0	-0.157052	0	-0.000496792	0	0.177671	0	0.00581808	0	0.00242859	0	0.0207684	0	0.00115843	0	6.95443e-05	0
300.89	-0.898558	0	-0.156818	0	-0.000399567	0	0.178476	0	0.00586453	0	0.00243117	0	0.0194628	0	0.00116265	0	5.89609e-05	0
300.93	-0.891401	0	-0.156582	0	-0.000302243	0	0.179277	0	0.00591115	0	0.00243359	0	0.0205982	0	0.00116723	0	6.2558e-05	0
300.97	-0.884212	0	-0.156345	0	-0.000204827	0	0.180029	0	0.00595792	0	0.00243562	0	0.0170308	0	0.00117059	0	3.88166e-05	0
301.01	-0.876994	0	-0.156106	0	-0.000107338	0	0.180761	0	0.00600486	0	0.00243741	0	0.0195611	0	0.00117521	0	5.0526e-05	0
301.05	-0.869747	0	-0.155864	0	-9.77678e-06	0	0.181501	0	0.00605193	0	0.00243912	0	0.017401	0	0.00117896	0	3.49574e-05	0
301.09	-0.86247	0	-0.155621	0	8.7845e-05	0	0.182207	0	0.00609921	0	0.00244052	0	0.0179063	0	0.00118266	0	3.48805e-05	0
301.13	-0.855166	0	-0.155376	0	0.000185519	0	0.182881	0	0.00614661	0	0.0024416	0	0.0157264	0	0.00118772	0	1.91987e-05	0
301.17	-0.847835	0	-0.155129	0	0.000283231	0	0.183569	0	0.00619421	0	0.00244266	0	0.0187051	0	0.0011911	0	3.34858e-05	0
301.21	-0.840476	0	-0.154881	0	0.000380986	0	0.184243	0	0.00624192	0	0.0024435	0	0.0149812	0	0.00119484	0	8.81619e-06	0
301.25	-0.833092	0	-0.15463	0	0.000478764	0	0.184871	0	0.00628981	0	0.00244396	0	0.0164021	0	0.00119848	0	1.40473e-05	0
301.29	-0.825682	0	-0.154377	0	0.00057656	0	0.185497	0	0.00633782	0	0.00244429	0	0.0148913	0	0.00120202	0	2.23401e-06	0
301.33	-0.818248	0	-0.154123	0	0.000674363	0	0.186121	0	0.00638598	0	0.00244448	0	0.0163177	0	0.00120567	0	7.49276e-06	0
301.37	-0.810789	0	-0.153866	0	0.00077217	0	0.186689	0	0.00643433	0	0.00244422	0	0.012091	0	0.00121053	0	-2.01077e-05	0
301.41	-0.803309	0	-0.153608	0	0.000869956	0	0.187235	0	0.00648279	0	0.00244372	0	0.0151968	0	0.00121245	0	-5.08576e-06	0
301.45	-0.795806	0	-0.153347	0	0.000967725	0	0.187793	0	0.00653141	0	0.00244316	0	0.0126639	0	0.00121702	0	-2.28358e-05	0
301.49	-0.788281	0	-0.153085	0	0.00106546	0	0.188313	0	0.00658016	0	0.00244227	0	0.0133403	0	0.00122107	0	-2.1935e-05	0
301.53	-0.780736	0	-0.152821	0	0.00116316	0	0.188796	0	0.00662913	0	0.00244103	0	0.0107835	0	0.00122598	0	-3.98105e-05	0
301.57	-0.773173	0	-0.152555	0	0.0012608	0	0.189301	0	0.00667821	0	0.00243981	0	0.0144478	0	0.0012273	0	-2.15306e-05	0
301.61	-0.765588	0	-0.152286	0	0.0013584	0	0.189791	0	0.00672743	0	0.00243837	0	0.0100365	0	0.00123381	0	-5.01772e-05	0
301.65	-0.757986	0	-0.152016	0	0.00145593	0	0.190228	0	0.00677686	0	0.00243651	0	0.011831	0	0.00123623	0	-4.2739e-05	0
301.69	-0.750365	0	-0.151744	0	0.00155338	0	0.190667	0	0.00682645	0	0.00243454	0	0.0100926	0	0.00124226	0	-5.58218e-05	0
301.73	-0.742728	0	-0.15147	0	0.00165074	0	0.191076	0	0.00687621	0	0.00243228	0	0.0103366	0	0.00124588	0	-5.73666e-05	0
301.77	-0.735075	0	-0.151194	0	0.00174801	0	0.191454	0	0.00692615	0	0.00242972	0	0.00857625	0	0.00125123	0	-7.05415e-05	0
301.81	-0.727407	0	-0.150916	0	0.00184518	0	0.191839	0	0.00697625	0	0.00242708	0	0.0106755	0	0.00125429	0	-6.12634e-05	0
301.85	-0.719724	0	-0.150636	0	0.00194224	0	0.192208	0	0.00702656	0	0.00242424	0	0.00776833	0	0.00126096	0	-8.10638e-05	0
301.89	-0.712026	0	-0.150354	0	0.00203917	0	0.192538	0	0.00707712	0	0.00242104	0	0.00871308	0	0.00126509	0	-7.84431e-05	0
301.93	-0.704316	0	-0.150069	0	0.00213597	0	0.192862	0	0.00712787	0	0.0024177	0	0.00747207	0	0.00127244	0	-8.85035e-05	0
301.97	-0.696593	0	-0.149783	0	0.00223264	0	0.19318	0	0.0071788	0	0.00241422	0	0.00843619	0	0.00127458	0	-8.57181e-05	0
302.01	-0.688858	0	-0.149495	0	0.00232916	0	0.193452	0	0.00723001	0	0.00241035	0	0.00516916	0	0.00128438	0	-0.000107488	0
302.05	-0.681113	0	-0.149205	0	0.00242552	0	0.193704	0	0.00728144	0	0.00240626	0	0.00740615	0	0.00128709	0	-9.72378e-05	0
302.09	-0.673357	0	-0.148912	0	0.00252172	0	0.19396	0	0.00733313	0	0.00240208	0	0.00542226	0	0.00129575	0	-0.00011148	0
302.13	-0.665591	0	-0.148618	0	0.00261774	0	0.194186	0	0.00738511	0	0.00239761	0	0.0058502	0	0.00130257	0	-0.000111671	0
302.17	-0.657818	0	-0.148321	0	0.00271358	0	0.194381	0	0.00743739	0	0.00239287	0	0.00386642	0	0.00131152	0	-0.000125835	0
302.21	-0.650036	0	-0.148023	0	0.00280923	0	0.194589	0	0.00748995	0	0.00238809	0	0.00653819	0	0.00131543	0	-0.000112911	0
302.25	-0.642246	0	-0.147722	0	0.00290468	0	0.194783	0	0.00754282	0	0.00238313	0	0.00318203	0	0.00132749	0	-0.000134977	0
302.29	-0.63445	0	-0.147419	0	0.00299993	0	0.194936	0	0.00759605	0	0.00237783	0	0.00446934	0	0.00133322	0	-0.000130016	0
302.33	-0.626647	0	-0.147114	0	0.00309497	0	0.195088	0	0.00764959	0	0.00237242	0	0.00312234	0	0.00134373	0	-0.000140322	0
302.37	-0.618838	0	-0.146807	0	0.00318978	0	0.195239	0	0.00770344	0	0.00236691	0	0.00443872	0	0.00134839	0	-0.000135116	0
302.41	-0.611023	0	-0.146497	0	0.00328437	0	0.19534	0	0.0077577	0	0.00236101	0	0.000647257	0	0.00136385	0	-0.00015955	0
302.45	-0.603206	0	-0.146186	0	0.00337871	0	0.195423	0	0.0078124	0	0.00235491	0	0.00349897	0	0.00136904	0	-0.000145337	0
302.49	-0.595385	0	-0.145872	0	0.00347282	0	0.195518	0	0.00786741	0	0.00234879	0	0.00125592	0	0.00138139	0	-0.0001607	0
302.53	-0.587561	0	-0.145556	0	0.00356667	0	0.195582	0	0.00792289	0	0.00234239	0	0.00192225	0	0.00139104	0	-0.000159122	0
302.57	-0.579734	0	-0.145238	0	0.00366026	0	0.195614	0	0.00797881	0	0.00233572	0	-0.000329012	0	0.00140367	0	-0.000174459	0
302.61	-0.571906	0	-0.144918	0	0.00375358	0	0.195669	0	0.00803509	0	0.00232909	0	0.00304826	0	0.00140859	0	-0.000157056	0
302.65	-0.564076	0	-0.144595	0	0.00384664	0	0.195712	0	0.0080918	0	0.0023223	0	-0.000870867	0	0.00142744	0	-0.000182042	0
302.69	-0.556245	0	-0.14427	0	0.00393942	0	0.195711	0	0.00814908	0	0.00231517	0	0.000822278	0	0.00143524	0	-0.000174369	0
302.73	-0.548414	0	-0.143943	0	0.00403191	0	0.195714	0	0.0082068	0	0.00230798	0	-0.000675875	0	0.00144996	0	-0.000185228	0
302.77	-0.540584	0	-0.143614	0	0.00412411	0	0.195721	0	0.00826502	0	0.00230072	0	0.00103679	0	0.00145864	0	-0.000177417	0
302.81	-0.532753	0	-0.143282	0	0.00421602	0	0.195673	0	0.00832377	0	0.00229306	0	-0.00341862	0	0.00147933	0	-0.000205407	0
302.85	-0.524925	0	-0.142947	0	0.00430761	0	0.195607	0	0.00838308	0	0.00228521	0	0.000132689	0	0.00148526	0	-0.000186884	0
302.89	-0.517099	0	-0.142611	0	0.00439889	0	0.195561	0	0.00844286	0	0.00227739	0	-0.00247162	0	0.00150361	0	-0.000204106	0
302.93	-0.509276	0	-0.142272	0	0.00448985	0	0.19548	0	0.00850326	0	0.00226928	0	-0.00157044	0	0.00151483	0	-0.000200963	0
302.97	-0.501456	0	-0.14193	0	0.00458048	0	0.195395	0	0.00856423	0	0.00226108	0	-0.00263755	0	0.00153122	0	-0.000209253	0
303.01	-0.49364	0	-0.141586	0	0.00467079	0	0.195308	0	0.0086257	0	0.00225277	0	-0.00172391	0	0.00154143	0	-0.000206049	0
303.05	-0.485827	0	-0.14124	0	0.00476075	0	0.195181	0	0.00868779	0	0.00224414	0	-0.00461637	0	0.00156297	0	-0.000224918	0
303.09	-0.478021	0	-0.140891	0	0.00485037	0	0.195037	0	0.00875052	0	0.00223534	0	-0.00257903	0	0.00157266	0	-0.00021521	0
303.13	-0.47022	0	-0.14054	0	0.00493963	0	0.194899	0	0.00881381	0	0.00222648	0	-0.0043402	0	0.00159096	0	-0.000227554	0
303.17	-0.462425	0	-0.140186	0	0.00502854	0	0.194733	0	0.00887777	0	0.00221738	0	-0.00394499	0	0.00160537	0	-0.000227397	0
303.21	-0.454637	0	-0.139829	0	0.00511707	0	0.194539	0	0.00894232	0	0.00220803	0	-0.00574203	0	0.001623	0	-0.000240011	0
303.25	-0.446857	0	-0.13947	0	0.00520523	0	0.194358	0	0.00900746	0	0.00219866	0	-0.00332598	0	0.0016326	0	-0.000228094	0
303.29	-0.439084	0	-0.139109	0	0.00529302	0	0.194163	0	0.00907323	0	0.00218913	0	-0.00640069	0	0.0016556	0	-0.000248208	0
303.33	-0.43132	0	-0.138744	0	0.00538041	0	0.19393	0	0.00913972	0	0.00217929	0	-0.00526924	0	0.0016683	0	-0.000243842	0
303.37	-0.423565	0	-0.138377	0	0.00546741	0	0.193693	0	0.00920683	0	0.00216934	0	-0.00654692	0	0.0016861	0	-0.000253524	0
303.411	-0.41582	0	-0.138007	0	0.00555401	0	0.193453	0	0.00927456	0	0.00215928	0	-0.00542734	0	0.00169889	0	-0.000249331	0
303.451	-0.408085	0	-0.137635	0	0.0056402	0	0.193166	0	0.00934302	0	0.00214885	0	-0.00892971	0	0.00172363	0	-0.000271937	0
303.491	-0.400362	0	-0.13726	0	0.00572596	0	0.192858	0	0.00941218	0	0.0021382	0	-0.00645998	0	0.00173286	0	-0.000259977	0
303.531	-0.392651	0	-0.136882	0	0.00581131	0	0.192557	0	0.00948189	0	0.00212751	0	-0.00859691	0	0.00175238	0	-0.00027476	0
303.571	-0.384954	0	-0.136501	0	0.00589621	0	0.192222	0	0.00955232	0	0.00211652	0	-0.00812519	0	0.00176793	0	-0.00027443	0
303.611	-0.377269	0	-0.136117	0	0.00598067	0	0.191854	0	0.00962347	0	0.00210524	0	-0.0103056	0	0.00178888	0	-0.000289573	0
303.651	-0.3696	0	-0.135731	0	0.00606468	0	0.1915	0	0.00969522	0	0.00209394	0	-0.00739238	0	0.00179663	0	-0.000275043	0
303.691	-0.361945	0	-0.135342	0	0.00614824	0	0.19113	0	0.00976762	0	0.00208245	0	-0.0111165	0	0.00182223	0	-0.000299251	0
303.731	-0.354306	0	-0.134949	0	0.00623132	0	0.190712	0	0.00984075	0	0.00207059	0	-0.00975666	0	0.00183338	0	-0.000293854	0
303.771	-0.346684	0	-0.134554	0	0.00631393	0	0.190291	0	0.00991455	0	0.0020586	0	-0.011302	0	0.00185498	0	-0.000305397	0
303.811	-0.339078	0	-0.134156	0	0.00639606	0	0.189865	0	0.009989	0	0.00204648	0	-0.00995703	0	0.00186619	0	-0.000300183	0
303.851	-0.331491	0	-0.133755	0	0.00647769	0	0.189382	0	0.0100642	0	0.00203392	0	-0.0141732	0	0.00189299	0	-0.000327224	0
303.891	-0.323924	0	-0.13335	0	0.00655882	0	0.188874	0	0.0101401	0	0.00202112	0	-0.0111916	0	0.00189928	0	-0.000312558	0
303.931	-0.316376	0	-0.132943	0	0.00663943	0	0.188375	0	0.0102165	0	0.00200827	0	-0.0137534	0	0.00192243	0	-0.000330059	0
303.971	-0.30885	0	-0.132533	0	0.00671952	0	0.187837	0	0.0102937	0	0.00199508	0	-0.0131637	0	0.00193498	0	-0.000329279	0
304.011	-0.301345	0	-0.132119	0	0.00679908	0	0.187259	0	0.0103716	0	0.00198155	0	-0.0157664	0	0.00195856	0	-0.000347067	0
304.051	-0.293864	0	-0.131703	0	0.00687809	0	0.186699	0	0.01045	0	0.00196802	0	-0.0122193	0	0.00196075	0	-0.000329048	0
304.091	-0.286405	0	-0.131283	0	0.00695656	0	0.186121	0	0.0105291	0	0.00195428	0	-0.0166651	0	0.0019905	0	-0.000357582	0
304.131	-0.278971	0	-0.13086	0	0.00703447	0	0.185488	0	0.0106089	0	0.00194012	0	-0.0149718	0	0.00199854	0	-0.000350365	0
304.171	-0.271562	0	-0.130434	0	0.00711182	0	0.184853	0	0.0106892	0	0.00192584	0	-0.0167743	0	0.002019	0	-0.000363474	0
304.211	-0.264179	0	-0.130005	0	0.00718858	0	0.184185	0	0.0107703	0	0.00191126	0	-0.0166173	0	0.00203307	0	-0.000365177	0
304.251	-0.256823	0	-0.129572	0	0.00726476	0	0.183483	0	0.010852	0	0.00189639	0	-0.0184482	0	0.00205083	0	-0.000378433	0
304.291	-0.249496	0	-0.129136	0	0.00734034	0	0.182785	0	0.0109342	0	0.00188143	0	-0.0164399	0	0.00205864	0	-0.00036928	0
304.331	-0.242196	0	-0.128697	0	0.00741532	0	0.182068	0	0.0110171	0	0.00186625	0	-0.0194132	0	0.00208245	0	-0.000389151	0
304.371	-0.234927	0	-0.128255	0	0.00748968	0	0.181308	0	0.0111006	0	0.00185073	0	-0.0185518	0	0.00209313	0	-0.000386633	0
304.411	-0.227687	0	-0.127809	0	0.00756342	0	0.18054	0	0.0111847	0	0.00183506	0	-0.0198637	0	0.00211036	0	-0.000396737	0
304.451	-0.220479	0	-0.12736	0	0.00763652	0	0.179762	0	0.0112693	0	0.00181924	0	-0.0189846	0	0.00211897	0	-0.000394074	0
304.491	-0.213303	0	-0.126907	0	0.00770899	0	0.178936	0	0.0113546	0	0.00180304	0	-0.0222929	0	0.00214433	0	-0.000415645	0
304.531	-0.20616	0	-0.126451	0	0.00778081	0	0.178087	0	0.0114405	0	0.00178661	0	-0.0201503	0	0.00214835	0	-0.000405559	0
304.571	-0.199051	0	-0.125992	0	0.00785196	0	0.17724	0	0.0115269	0	0.0017701	0	-0.0221812	0	0.00216832	0	-0.000419635	0
304.611	-0.191977	0	-0.125529	0	0.00792245	0	0.17636	0	0.0116139	0	0.0017533	0	-0.0218217	0	0.00217965	0	-0.000419774	0
304.651	-0.184939	0	-0.125062	0	0.00799227	0	0.175447	0	0.0117015	0	0.00173623	0	-0.0238473	0	0.00219871	0	-0.000433724	0
304.691	-0.177937	0	-0.124592	0	0.00806139	0	0.174544	0	0.0117895	0	0.00171914	0	-0.0212483	0	0.00220066	0	-0.000420689	0
304.731	-0.170971	0	-0.124119	0	0.00812984	0	0.173626	0	0.0118781	0	0.00170187	0	-0.0246284	0	0.00222587	0	-0.000442405	0
304.771	-0.164044	0	-0.123642	0	0.00819758	0	0.172666	0	0.0119673	0	0.00168427	0	-0.0233911	0	0.00223175	0	-0.000437177	0
304.811	-0.157154	0	-0.123161	0	0.00826462	0	0.171702	0	0.0120569	0	0.00166658	0	-0.0247648	0	0.00224847	0	-0.000447066	0
304.851	-0.150303	0	-0.122677	0	0.00833094	0	0.170736	0	0.012147	0	0.0016488	0	-0.0234897	0	0.00225507	0	-0.000441505	0
304.891	-0.143492	0	-0.122189	0	0.00839655	0	0.169721	0	0.0122378	0	0.00163066	0	-0.0272698	0	0.00228204	0	-0.000465199	0
304.931	-0.136722	0	-0.121698	0	0.00846143	0	0.168686	0	0.0123291	0	0.00161234	0	-0.0244575	0	0.00228051	0	-0.000450572	0
304.971	-0.129993	0	-0.121202	0	0.00852558	0	0.167663	0	0.0124208	0	0.00159402	0	-0.0266894	0	0.00230157	0	-0.000465149	0
305.011	-0.123305	0	-0.120704	0	0.00858899	0	0.166608	0	0.012513	0	0.00157545	0	-0.0260269	0	0.00230825	0	-0.000462844	0
305.051	-0.116661	0	-0.120201	0	0.00865165	0	0.165522	0	0.0126057	0	0.00155664	0	-0.0282513	0	0.00232831	0	-0.000477253	0
305.091	-0.110059	0	-0.119695	0	0.00871356	0	0.164459	0	0.0126988	0	0.00153791	0	-0.0248785	0	0.00232598	0	-0.000459013	0
305.131	-0.1035	0	-0.119185	0	0.00877472	0	0.163387	0	0.0127924	0	0.00151907	0	-0.0287405	0	0.00235269	0	-0.000482818	0
305.171	-0.0969851	0	-0.118671	0	0.00883512	0	0.162271	0	0.0128866	0	0.00149993	0	-0.0270202	0	0.00235478	0	-0.000474059	0
305.211	-0.0905144	0	-0.118154	0	0.00889475	0	0.161161	0	0.0129812	0	0.00148077	0	-0.0284583	0	0.00237166	0	-0.000483606	0
305.251	-0.0840887	0	-0.117632	0	0.00895361	0	0.160029	0	0.0130763	0	0.00146143	0	-0.0281063	0	0.00238116	0	-0.000482675	0
305.291	-0.0777085	0	-0.117107	0	0.0090117	0	0.158876	0	0.0131719	0	0.00144193	0	-0.0295465	0	0.00239801	0	-0.000492116	0
305.331	-0.0713747	0	-0.116578	0	0.009069	0	0.157735	0	0.0132678	0	0.00142246	0	-0.0275018	0	0.00239831	0	-0.000481169	0
305.371	-0.0650861	0	-0.116045	0	0.00912553	0	0.156585	0	0.0133642	0	0.0014029	0	-0.0299582	0	0.00241942	0	-0.000496415	0
305.411	-0.0588445	0	-0.115509	0	0.00918126	0	0.155407	0	0.0134611	0	0.00138314	0	-0.0289375	0	0.00242581	0	-0.000491334	0
305.451	-0.0526498	0	-0.114968	0	0.00923621	0	0.15423	0	0.0135584	0	0.00136335	0	-0.0298788	0	0.00243848	0	-0.000497625	0
305.491	-0.0465024	0	-0.114424	0	0.00929036	0	0.153055	0	0.0136561	0	0.00134355	0	-0.0288408	0	0.00244465	0	-0.000492368	0
305.531	-0.0404022	0	-0.113875	0	0.00934372	0	0.151846	0	0.0137544	0	0.00132351	0	-0.0315729	0	0.0024669	0	-0.000508913	0
305.571	-0.0343512	0	-0.113323	0	0.00939627	0	0.150627	0	0.0138531	0	0.00130339	0	-0.0293957	0	0.00246802	0	-0.000496963	0
305.611	-0.0283483	0	-0.112767	0	0.00944802	0	0.149419	0	0.0139522	0	0.00128331	0	-0.030979	0	0.00248433	0	-0.000506777	0
305.651	-0.0223944	0	-0.112207	0	0.00949897	0	0.14819	0	0.0140517	0	0.00126308	0	-0.0304113	0	0.00249125	0	-0.00050407	0
305.691	-0.0164898	0	-0.111642	0	0.0095491	0	0.146942	0	0.0141518	0	0.00124272	0	-0.0320041	0	0.0025096	0	-0.000513904	0
305.731	-0.0106353	0	-0.111074	0	0.00959842	0	0.145713	0	0.0142521	0	0.00122245	0	-0.0294138	0	0.00250742	0	-0.00049931	0
305.771	-0.00482936	0	-0.110502	0	0.00964692	0	0.14448	0	0.0143529	0	0.00120213	0	-0.0322467	0	0.00253027	0	-0.000516333	0
305.811	0.00092609	0	-0.109926	0	0.00969461	0	0.143216	0	0.0144543	0	0.00118161	0	-0.0309096	0	0.00253451	0	-0.000509015	0
305.851	0.00663142	0	-0.109345	0	0.00974148	0	0.141959	0	0.014556	0	0.00116112	0	-0.0319416	0	0.0025493	0	-0.000515483	0
305.891	0.0122862	0	-0.108761	0	0.00978753	0	0.140707	0	0.014658	0	0.00114063	0	-0.030603	0	0.00255145	0	-0.00050818	0
305.931	0.0178908	0	-0.108172	0	0.00983276	0	0.139418	0	0.0147606	0	0.00111992	0	-0.0338048	0	0.00257695	0	-0.000527149	0
305.971	0.0234429	0	-0.10758	0	0.00987715	0	0.138119	0	0.0148636	0	0.00109913	0	-0.0311198	0	0.0025739	0	-0.000512039	0
306.011	0.0289439	0	-0.106983	0	0.00992071	0	0.136837	0	0.014967	0	0.00107842	0	-0.0329623	0	0.00259331	0	-0.000523157	0
306.051	0.0343928	0	-0.106382	0	0.00996345	0	0.135533	0	0.0150709	0	0.00105756	0	-0.0322301	0	0.00259899	0	-0.00051934	0
306.091	0.0397897	0	-0.105777	0	0.0100053	0	0.134229	0	0.0151751	0	0.00103669	0	-0.0329454	0	0.00261128	0	-0.000523937	0
306.131	0.0451343	0	-0.105167	0	0.0100464	0	0.132925	0	0.0152798	0	0.0010158	0	-0.0322177	0	0.00261793	0	-0.000520195	0
306.171	0.0504265	0	-0.104554	0	0.0100866	0	0.131595	0	0.0153849	0	0.000994739	0	-0.0342538	0	0.00263625	0	-0.00053239	0
306.211	0.0556649	0	-0.103936	0	0.010126	0	0.130255	0	0.0154904	0	0.000973604	0	-0.0327187	0	0.00263911	0	-0.000524024	0
306.251	0.0608501	0	-0.103314	0	0.0101645	0	0.128921	0	0.0155963	0	0.000952484	0	-0.0339396	0	0.00265273	0	-0.000531582	0
306.291	0.0659814	0	-0.102688	0	0.0102022	0	0.12757	0	0.0157026	0	0.000931243	0	-0.0335992	0	0.00266007	0	-0.000530126	0
306.331	0.0710585	0	-0.102058	0	0.0102391	0	0.126201	0	0.0158093	0	0.000909875	0	-0.0348596	0	0.00267493	0	-0.00053802	0
306.371	0.0760806	0	-0.101423	0	0.010275	0	0.124842	0	0.0159163	0	0.00088855	0	-0.0330338	0	0.00267514	0	-0.000527868	0
306.411	0.0810488	0	-0.100784	0	0.0103102	0	0.123477	0	0.0160237	0	0.000867158	0	-0.0352385	0	0.00269454	0	-0.000541347	0
306.451	0.0859613	0	-0.100141	0	0.0103444	0	0.122084	0	0.0161317	0	0.000845588	0	-0.03436	0	0.00269724	0	-0.000536815	0
